12/12/2017,09:30,99.55,99.6,99,99.25,34983
12/12/2017,09:35,99.2,99.31,99,99,16660
12/12/2017,09:40,99.01,99.12,98.69,98.83,19516
12/12/2017,09:45,98.87,98.87,98.5,98.59,19491
12/12/2017,09:50,98.57,98.57,98.26,98.32,40740
12/12/2017,09:55,98.32,98.37,98.07,98.13,25113
12/12/2017,10:00,98.12,98.55,98.07,98.55,27093
12/12/2017,10:05,98.53,98.57,98.28,98.42,44669
12/12/2017,10:10,98.41,98.44,98.28,98.32,36766
12/12/2017,10:15,98.34,98.43,98.29,98.39,23754
12/12/2017,10:20,98.41,98.72,98.4,98.64,15627
12/12/2017,10:25,98.61,98.68,98.56,98.66,7272
12/12/2017,10:30,98.69,98.69,98.59,98.64,16651
12/12/2017,10:35,98.63,98.67,98.58,98.65,25920
12/12/2017,10:40,98.6,98.73,98.53,98.66,18070
12/12/2017,10:45,98.63,98.74,98.6,98.61,24841
12/12/2017,10:50,98.61,98.78,98.61,98.77,29837
12/12/2017,10:55,98.79,98.83,98.61,98.63,14912
12/12/2017,11:00,98.64,98.69,98.52,98.53,20445
12/12/2017,11:05,98.52,98.57,98.49,98.54,12802
12/12/2017,11:10,98.55,98.57,98.44,98.48,16370
12/12/2017,11:15,98.49,98.5,98.41,98.42,9519
12/12/2017,11:20,98.4,98.41,98.21,98.27,11205
12/12/2017,11:25,98.26,98.39,98.25,98.28,11989
12/12/2017,11:30,98.3,98.42,98.27,98.37,13308
12/12/2017,11:35,98.35,98.46,98.33,98.38,8840
12/12/2017,11:40,98.37,98.49,98.35,98.46,10972
12/12/2017,11:45,98.47,98.47,98.34,98.35,8213
12/12/2017,11:50,98.36,98.36,98.12,98.16,19728
12/12/2017,11:55,98.19,98.22,97.88,97.88,16527
12/12/2017,12:00,97.87,97.9,97.74,97.76,14496
12/12/2017,12:05,97.8,97.92,97.78,97.78,15181
12/12/2017,12:10,97.81,97.91,97.73,97.77,14560
12/12/2017,12:15,97.73,97.87,97.73,97.8,31413
12/12/2017,12:20,97.83,97.84,97.77,97.79,10382
12/12/2017,12:25,97.79,97.81,97.65,97.73,33301
12/12/2017,12:30,97.74,97.86,97.73,97.84,74443
12/12/2017,12:35,97.84,97.89,97.69,97.71,61860
12/12/2017,12:40,97.71,97.88,97.71,97.86,11969
12/12/2017,12:45,97.89,97.99,97.88,97.95,38637
12/12/2017,12:50,97.94,98.05,97.94,98.03,8002
12/12/2017,12:55,98.05,98.22,98.03,98.2,11886
12/12/2017,13:00,98.21,98.22,98.09,98.13,9757
12/12/2017,13:05,98.15,98.15,98.03,98.05,9974
12/12/2017,13:10,98.07,98.24,98.04,98.24,8652
12/12/2017,13:15,98.27,98.27,98.18,98.21,9599
12/12/2017,13:20,98.19,98.26,98.17,98.26,12405
12/12/2017,13:25,98.24,98.26,98.21,98.22,6335
12/12/2017,13:30,98.23,98.35,98.19,98.26,12337
12/12/2017,13:35,98.28,98.33,98.25,98.33,12940
12/12/2017,13:40,98.31,98.34,98.17,98.31,15984
12/12/2017,13:45,98.33,98.35,98.26,98.27,10793
12/12/2017,13:50,98.25,98.29,98.22,98.28,6613
12/12/2017,13:55,98.28,98.33,98.19,98.21,18854
12/12/2017,14:00,98.21,98.34,98.21,98.31,24028
12/12/2017,14:05,98.32,98.34,98.27,98.27,8017
12/12/2017,14:10,98.27,98.3,98.22,98.25,21495
12/12/2017,14:15,98.25,98.33,98.25,98.33,5564
12/12/2017,14:20,98.36,98.41,98.33,98.33,7639
12/12/2017,14:25,98.34,98.57,98.34,98.54,24518
12/12/2017,14:30,98.55,98.71,98.52,98.69,15275
12/12/2017,14:35,98.66,98.72,98.66,98.69,15489
12/12/2017,14:40,98.69,98.81,98.66,98.75,35813
12/12/2017,14:45,98.76,98.76,98.66,98.68,11874
12/12/2017,14:50,98.7,98.75,98.67,98.68,15132
12/12/2017,14:55,98.66,98.67,98.61,98.64,13454
12/12/2017,15:00,98.66,98.69,98.59,98.61,12114
12/12/2017,15:05,98.62,98.69,98.61,98.61,12235
12/12/2017,15:10,98.62,98.65,98.58,98.65,11569
12/12/2017,15:15,98.66,98.71,98.58,98.68,17605
12/12/2017,15:20,98.67,98.67,98.59,98.67,19833
12/12/2017,15:25,98.66,98.68,98.57,98.6,19971
12/12/2017,15:30,98.62,98.73,98.62,98.63,29518
12/12/2017,15:35,98.63,98.72,98.62,98.7,42616
12/12/2017,15:40,98.68,98.68,98.6,98.6,44757
12/12/2017,15:45,98.57,98.62,98.54,98.56,38357
12/12/2017,15:50,98.56,98.6,98.42,98.44,40529
12/12/2017,15:55,98.46,98.52,98.44,98.49,76343
12/12/2017,16:00,98.48,98.48,98.48,98.48,152720
12/12/2017,16:45,98.48,98.48,98.48,98.48,7926
12/12/2017,18:40,98.49,98.49,98.49,98.49,102
12/13/2017,09:30,98.65,98.65,98.12,98.31,23406
12/13/2017,09:35,98.41,98.41,97.99,98.04,12389
12/13/2017,09:40,98.03,98.15,97.93,98.09,6858
12/13/2017,09:45,98.1,98.13,97.92,97.92,2667
12/13/2017,09:50,97.96,98.23,97.95,98.21,21119
12/13/2017,09:55,98.26,98.51,98.26,98.51,4379
12/13/2017,10:00,98.5,98.53,98.39,98.5,9921
12/13/2017,10:05,98.52,98.7,98.46,98.61,7656
12/13/2017,10:10,98.61,98.62,98.49,98.57,9006
12/13/2017,10:15,98.53,98.73,98.5,98.64,8983
12/13/2017,10:20,98.66,98.66,98.45,98.48,4735
12/13/2017,10:25,98.52,98.62,98.45,98.62,5337
12/13/2017,10:30,98.6,98.72,98.39,98.45,5433
12/13/2017,10:35,98.43,98.66,98.43,98.45,9005
12/13/2017,10:40,98.47,98.57,98.37,98.48,6476
12/13/2017,10:45,98.4,98.49,98.26,98.26,6933
12/13/2017,10:50,98.28,98.36,98.25,98.36,4989
12/13/2017,10:55,98.34,98.35,98.23,98.33,5516
12/13/2017,11:00,98.36,98.38,98.11,98.17,16847
12/13/2017,11:05,98.15,98.33,98.06,98.25,9166
12/13/2017,11:10,98.23,98.23,98.01,98.06,5515
12/13/2017,11:15,98.03,98.12,98.02,98.1,6757
12/13/2017,11:20,98.05,98.14,98.03,98.11,5524
12/13/2017,11:25,98.08,98.23,98.03,98.2,10736
12/13/2017,11:30,98.22,98.28,98.14,98.14,4674
12/13/2017,11:35,98.12,98.2,98.12,98.18,7337
12/13/2017,11:40,98.18,98.47,98.1,98.44,10222
12/13/2017,11:45,98.4,98.5,98.38,98.5,10033
12/13/2017,11:50,98.47,98.53,98.46,98.53,11780
12/13/2017,11:55,98.58,98.58,98.48,98.51,12056
12/13/2017,12:00,98.53,98.54,98.36,98.4,9979
12/13/2017,12:05,98.4,98.47,98.35,98.44,5026
12/13/2017,12:10,98.45,98.57,98.43,98.53,12766
12/13/2017,12:15,98.52,98.54,98.43,98.53,15900
12/13/2017,12:20,98.54,98.55,98.38,98.41,5758
12/13/2017,12:25,98.41,98.46,98.36,98.46,9587
12/13/2017,12:30,98.46,98.49,98.43,98.48,5937
12/13/2017,12:35,98.48,98.52,98.39,98.48,14723
12/13/2017,12:40,98.48,98.49,98.31,98.34,8376
12/13/2017,12:45,98.34,98.46,98.33,98.41,7370
12/13/2017,12:50,98.43,98.48,98.41,98.45,4046
12/13/2017,12:55,98.44,98.47,98.43,98.45,4478
12/13/2017,13:00,98.43,98.47,98.37,98.44,7352
12/13/2017,13:05,98.4,98.51,98.4,98.46,4720
12/13/2017,13:10,98.47,98.53,98.47,98.53,3161
12/13/2017,13:15,98.54,98.57,98.53,98.56,2612
12/13/2017,13:20,98.56,98.66,98.51,98.64,17605
12/13/2017,13:25,98.66,98.75,98.66,98.66,9148
12/13/2017,13:30,98.64,98.71,98.62,98.66,2362
12/13/2017,13:35,98.66,98.75,98.66,98.75,7314
12/13/2017,13:40,98.77,98.79,98.67,98.79,6711
12/13/2017,13:45,98.78,98.79,98.69,98.79,5062
12/13/2017,13:50,98.81,98.82,98.71,98.74,5777
12/13/2017,13:55,98.72,98.75,98.61,98.64,3167
12/13/2017,14:00,98.73,98.91,98.54,98.55,27809
12/13/2017,14:05,98.54,98.54,98.41,98.53,7256
12/13/2017,14:10,98.56,98.56,98.45,98.49,12017
12/13/2017,14:15,98.52,98.58,98.47,98.49,12901
12/13/2017,14:20,98.46,98.5,98.36,98.42,9747
12/13/2017,14:25,98.4,98.45,98.38,98.38,3985
12/13/2017,14:30,98.39,98.43,98.35,98.42,5784
12/13/2017,14:35,98.39,98.46,98.37,98.43,5377
12/13/2017,14:40,98.43,98.5,98.39,98.44,9781
12/13/2017,14:45,98.46,98.5,98.45,98.48,7597
12/13/2017,14:50,98.49,98.51,98.44,98.44,8103
12/13/2017,14:55,98.44,98.49,98.4,98.4,11849
12/13/2017,15:00,98.41,98.42,98.31,98.34,9087
12/13/2017,15:05,98.35,98.36,98.26,98.26,7142
12/13/2017,15:10,98.28,98.31,98.25,98.25,5254
12/13/2017,15:15,98.24,98.25,98.02,98.02,11560
12/13/2017,15:20,98.03,98.15,98.03,98.06,10606
12/13/2017,15:25,98.05,98.18,98.05,98.15,9016
12/13/2017,15:30,98.16,98.2,98.12,98.2,14429
12/13/2017,15:35,98.21,98.22,98.13,98.13,15064
12/13/2017,15:40,98.14,98.21,98.14,98.21,15261
12/13/2017,15:45,98.21,98.25,98.16,98.25,23420
12/13/2017,15:50,98.26,98.27,98.18,98.22,28200
12/13/2017,15:55,98.22,98.27,98.15,98.17,97688
12/13/2017,16:00,98.14,98.14,98.14,98.14,362227
12/13/2017,16:15,98.14,98.14,98.14,98.14,10299
12/14/2017,09:30,97.97,98.53,97.76,98.29,28095
12/14/2017,09:35,98.57,98.89,98.38,98.62,25136
12/14/2017,09:40,98.66,98.74,98.51,98.61,7408
12/14/2017,09:45,98.65,98.7,98.5,98.67,5461
12/14/2017,09:50,98.65,98.74,98.57,98.57,53163
12/14/2017,09:55,98.61,98.97,98.61,98.8,20481
12/14/2017,10:00,98.79,98.99,98.78,98.94,11226
12/14/2017,10:05,98.91,99.02,98.83,98.83,11232
12/14/2017,10:10,98.83,98.85,98.54,98.65,10571
12/14/2017,10:15,98.64,98.71,98.5,98.5,3850
12/14/2017,10:20,98.47,98.47,98.36,98.4,6108
12/14/2017,10:25,98.4,98.43,98.3,98.36,11776
12/14/2017,10:30,98.36,98.52,98.34,98.47,26952
12/14/2017,10:35,98.5,98.66,98.46,98.65,9982
12/14/2017,10:40,98.65,98.66,98.51,98.6,7300
12/14/2017,10:45,98.59,98.67,98.47,98.47,8052
12/14/2017,10:50,98.48,98.56,98.48,98.56,11379
12/14/2017,10:55,98.57,98.65,98.42,98.46,15136
12/14/2017,11:00,98.45,98.5,98.34,98.45,9584
12/14/2017,11:05,98.46,98.54,98.43,98.43,25057
12/14/2017,11:10,98.46,98.46,98.34,98.45,7533
12/14/2017,11:15,98.45,98.53,98.41,98.53,6993
12/14/2017,11:20,98.52,98.61,98.52,98.61,18081
12/14/2017,11:25,98.65,98.67,98.59,98.67,5935
12/14/2017,11:30,98.66,98.86,98.66,98.86,15883
12/14/2017,11:35,98.86,98.86,98.75,98.81,10130
12/14/2017,11:40,98.8,98.8,98.64,98.64,8044
12/14/2017,11:45,98.67,98.75,98.64,98.75,11062
12/14/2017,11:50,98.75,98.8,98.65,98.78,6865
12/14/2017,11:55,98.77,98.79,98.61,98.71,18542
12/14/2017,12:00,98.7,98.74,98.63,98.64,7331
12/14/2017,12:05,98.65,98.76,98.65,98.72,14758
12/14/2017,12:10,98.74,98.74,98.64,98.67,13417
12/14/2017,12:15,98.68,98.76,98.66,98.73,4885
12/14/2017,12:20,98.74,98.76,98.69,98.72,4815
12/14/2017,12:25,98.72,98.82,98.72,98.77,7863
12/14/2017,12:30,98.75,98.8,98.74,98.77,7876
12/14/2017,12:35,98.76,98.76,98.61,98.63,7026
12/14/2017,12:40,98.61,98.64,98.57,98.57,8574
12/14/2017,12:45,98.58,98.58,98.51,98.57,11337
12/14/2017,12:50,98.56,98.6,98.52,98.56,12522
12/14/2017,12:55,98.54,98.56,98.47,98.52,9365
12/14/2017,13:00,98.52,98.52,98.42,98.45,14441
12/14/2017,13:05,98.45,98.45,98.33,98.36,16051
12/14/2017,13:10,98.35,98.45,98.35,98.37,13683
12/14/2017,13:15,98.36,98.57,98.36,98.45,14568
12/14/2017,13:20,98.43,98.43,98.35,98.4,11228
12/14/2017,13:25,98.42,98.6,98.39,98.58,13463
12/14/2017,13:30,98.58,98.61,98.45,98.47,12194
12/14/2017,13:35,98.45,98.49,98.45,98.47,3572
12/14/2017,13:40,98.47,98.5,98.37,98.37,7824
12/14/2017,13:45,98.4,98.4,98.33,98.37,7702
12/14/2017,13:50,98.37,98.37,98.24,98.25,6578
12/14/2017,13:55,98.27,98.31,98.2,98.23,9839
12/14/2017,14:00,98.23,98.3,98.21,98.22,12531
12/14/2017,14:05,98.23,98.3,98.23,98.29,10370
12/14/2017,14:10,98.28,98.34,98.28,98.33,11106
12/14/2017,14:15,98.33,98.47,98.33,98.38,14120
12/14/2017,14:20,98.38,98.42,98.25,98.26,20254
12/14/2017,14:25,98.27,98.32,98.2,98.22,23249
12/14/2017,14:30,98.22,98.34,98.22,98.32,20517
12/14/2017,14:35,98.32,98.43,98.31,98.38,10287
12/14/2017,14:40,98.38,98.42,98.33,98.4,9312
12/14/2017,14:45,98.41,98.43,98.34,98.38,13533
12/14/2017,14:50,98.4,98.4,98.33,98.38,11070
12/14/2017,14:55,98.38,98.42,98.36,98.42,11009
12/14/2017,15:00,98.43,98.46,98.37,98.37,10957
12/14/2017,15:05,98.38,98.4,98.32,98.34,10678
12/14/2017,15:10,98.35,98.37,98.26,98.27,11209
12/14/2017,15:15,98.26,98.26,98.13,98.14,16252
12/14/2017,15:20,98.15,98.28,98.09,98.27,28481
12/14/2017,15:25,98.25,98.36,98.23,98.26,25304
12/14/2017,15:30,98.26,98.27,98.12,98.16,22358
12/14/2017,15:35,98.15,98.25,98.15,98.21,36015
12/14/2017,15:40,98.22,98.26,98.11,98.11,32381
12/14/2017,15:45,98.11,98.18,97.97,97.97,46858
12/14/2017,15:50,97.96,97.99,97.88,97.99,57438
12/14/2017,15:55,97.98,98,97.83,97.86,171832
12/14/2017,16:00,97.85,97.85,97.85,97.85,794751
12/14/2017,16:10,97.18,97.18,97.18,97.18,204
12/15/2017,08:30,97.85,97.85,97.85,97.85,207
12/15/2017,09:05,97.85,97.85,97.85,97.85,24495
12/15/2017,09:25,98.28,98.69,98.28,98.68,1221
12/15/2017,09:30,98.73,98.83,97.48,97.5,722757
12/15/2017,09:35,97.6,97.6,96.94,97.06,62298
12/15/2017,09:40,97.06,97.5,97.03,97.2,54795
12/15/2017,09:45,97.2,97.5,97.08,97.44,30171
12/15/2017,09:50,97.47,97.48,97.29,97.32,17260
12/15/2017,09:55,97.32,97.54,97.28,97.48,15227
12/15/2017,10:00,97.51,97.51,97.11,97.11,31085
12/15/2017,10:05,97.11,97.3,96.92,97.28,40186
12/15/2017,10:10,97.29,97.4,97.18,97.35,30194
12/15/2017,10:15,97.35,97.67,97.35,97.67,20179
12/15/2017,10:20,97.62,97.67,97.44,97.44,16882
12/15/2017,10:25,97.45,97.45,97.26,97.3,20873
12/15/2017,10:30,97.34,97.37,97.22,97.25,34606
12/15/2017,10:35,97.24,97.26,97.08,97.08,49911
12/15/2017,10:40,97.07,97.11,96.93,96.96,28741
12/15/2017,10:45,96.99,97.02,96.84,96.85,33989
12/15/2017,10:50,96.85,96.96,96.8,96.88,11066
12/15/2017,10:55,96.85,96.99,96.83,96.95,21161
12/15/2017,11:00,96.97,96.98,96.84,96.84,15755
12/15/2017,11:05,96.87,96.92,96.84,96.91,13586
12/15/2017,11:10,96.91,96.98,96.81,96.85,15522
12/15/2017,11:15,96.85,96.9,96.83,96.88,7151
12/15/2017,11:20,96.91,96.95,96.85,96.87,25518
12/15/2017,11:25,96.87,97.03,96.87,97,13197
12/15/2017,11:30,97.04,97.05,96.93,97.02,14626
12/15/2017,11:35,97.01,97.04,96.93,97.01,26529
12/15/2017,11:40,97,97.05,96.9,96.93,12209
12/15/2017,11:45,96.92,96.96,96.84,96.92,12180
12/15/2017,11:50,96.92,97,96.92,96.94,12083
12/15/2017,11:55,96.95,96.98,96.93,96.94,10546
12/15/2017,12:00,96.95,96.95,96.84,96.89,11503
12/15/2017,12:05,96.91,96.92,96.8,96.82,6652
12/15/2017,12:10,96.83,96.93,96.82,96.9,10519
12/15/2017,12:15,96.88,97.01,96.86,96.97,15248
12/15/2017,12:20,96.97,97.03,96.94,96.97,8093
12/15/2017,12:25,96.98,97.01,96.87,96.88,9002
12/15/2017,12:30,96.89,96.92,96.82,96.83,16468
12/15/2017,12:35,96.83,96.89,96.79,96.87,14858
12/15/2017,12:40,96.86,96.87,96.7,96.7,14859
12/15/2017,12:45,96.72,96.79,96.72,96.74,6618
12/15/2017,12:50,96.74,96.81,96.73,96.8,23626
12/15/2017,12:55,96.82,96.88,96.75,96.87,28593
12/15/2017,13:00,96.87,97.12,96.86,96.99,15870
12/15/2017,13:05,96.99,97.03,96.91,96.91,7263
12/15/2017,13:10,96.91,96.96,96.91,96.93,11688
12/15/2017,13:15,96.93,96.95,96.9,96.91,12744
12/15/2017,13:20,96.92,96.96,96.91,96.95,10240
12/15/2017,13:25,96.93,96.95,96.85,96.86,26729
12/15/2017,13:30,96.86,96.97,96.85,96.95,14360
12/15/2017,13:35,96.95,97,96.94,97,7662
12/15/2017,13:40,96.98,97.06,96.96,97.04,12125
12/15/2017,13:45,97.02,97.04,96.96,97.01,13951
12/15/2017,13:50,96.99,97.07,96.97,97.07,5669
12/15/2017,13:55,97.1,97.24,97.08,97.22,12469
12/15/2017,14:00,97.21,97.32,97.15,97.28,55881
12/15/2017,14:05,97.28,97.3,97.19,97.19,36801
12/15/2017,14:10,97.2,97.28,97.13,97.19,37359
12/15/2017,14:15,97.22,97.22,97.11,97.13,13347
12/15/2017,14:20,97.15,97.24,97.15,97.23,26272
12/15/2017,14:25,97.23,97.25,97.18,97.21,34228
12/15/2017,14:30,97.22,97.23,97.19,97.2,37707
12/15/2017,14:35,97.2,97.23,97.19,97.2,20969
12/15/2017,14:40,97.21,97.24,97.14,97.23,14410
12/15/2017,14:45,97.23,97.23,97.09,97.11,16871
12/15/2017,14:50,97.09,97.17,97.05,97.1,18740
12/15/2017,14:55,97.1,97.14,97.02,97.12,27537
12/15/2017,15:00,97.12,97.18,97.1,97.14,6880
12/15/2017,15:05,97.16,97.23,97.13,97.21,15940
12/15/2017,15:10,97.22,97.26,97.21,97.26,14127
12/15/2017,15:15,97.25,97.26,97.13,97.23,21999
12/15/2017,15:20,97.23,97.26,97.13,97.13,16538
12/15/2017,15:25,97.13,97.17,97.08,97.14,19190
12/15/2017,15:30,97.14,97.19,97.08,97.15,36068
12/15/2017,15:35,97.13,97.13,96.99,97.06,35875
12/15/2017,15:40,97.06,97.06,96.96,96.99,58819
12/15/2017,15:45,96.98,96.98,96.84,96.91,71583
12/15/2017,15:50,96.93,96.99,96.85,96.9,98351
12/15/2017,15:55,96.9,96.9,96.7,96.78,209733
12/15/2017,16:00,96.78,96.78,96.78,96.78,1101005
12/15/2017,16:15,96.78,96.78,96.78,96.78,9634
12/15/2017,16:20,96.78,96.78,96.78,96.78,210381
12/15/2017,16:55,96.78,96.78,96.78,96.78,10224
12/15/2017,18:10,96.78,96.78,96.78,96.78,70672
12/18/2017,09:20,97.42,97.42,97.42,97.42,102
12/18/2017,09:25,96.87,96.87,96.83,96.83,402
12/18/2017,09:30,96.93,97.2,96.91,96.93,73234
12/18/2017,09:35,96.97,97.29,96.95,97.17,22418
12/18/2017,09:40,97.14,97.14,96.91,97,11370
12/18/2017,09:45,97.01,97.4,96.99,97.36,62453
12/18/2017,09:50,97.36,97.36,97.02,97.18,50011
12/18/2017,09:55,97.18,97.27,97.09,97.16,20651
12/18/2017,10:00,97.12,97.56,97.11,97.54,22217
12/18/2017,10:05,97.54,97.77,97.53,97.72,33954
12/18/2017,10:10,97.7,97.89,97.7,97.75,35211
12/18/2017,10:15,97.75,97.8,97.55,97.59,37119
12/18/2017,10:20,97.59,97.62,97.47,97.54,38662
12/18/2017,10:25,97.56,97.77,97.56,97.7,43860
12/18/2017,10:30,97.7,97.99,97.67,97.95,38765
12/18/2017,10:35,97.93,97.94,97.73,97.86,43546
12/18/2017,10:40,97.87,97.94,97.78,97.78,28933
12/18/2017,10:45,97.78,98.01,97.77,97.99,32272
12/18/2017,10:50,98.02,98.04,97.91,98.02,17339
12/18/2017,10:55,98.02,98.13,97.99,98.09,28500
12/18/2017,11:00,98.06,98.18,98.06,98.18,46430
12/18/2017,11:05,98.15,98.23,98.1,98.23,37322
12/18/2017,11:10,98.21,98.32,98.19,98.28,22750
12/18/2017,11:15,98.29,98.32,98.21,98.24,13587
12/18/2017,11:20,98.26,98.3,98.22,98.25,14422
12/18/2017,11:25,98.29,98.32,98.14,98.14,18714
12/18/2017,11:30,98.12,98.19,98.03,98.09,21686
12/18/2017,11:35,98.09,98.18,98.06,98.16,22628
12/18/2017,11:40,98.15,98.19,98.09,98.16,10872
12/18/2017,11:45,98.18,98.31,98.15,98.29,36249
12/18/2017,11:50,98.3,98.32,98.23,98.25,12668
12/18/2017,11:55,98.25,98.32,98.11,98.12,8277
12/18/2017,12:00,98.09,98.14,98.06,98.1,19825
12/18/2017,12:05,98.11,98.15,98.08,98.09,8537
12/18/2017,12:10,98.09,98.14,98.03,98.11,11714
12/18/2017,12:15,98.11,98.15,98.1,98.14,8196
12/18/2017,12:20,98.15,98.15,97.96,98,12346
12/18/2017,12:25,97.98,98.01,97.88,97.91,8508
12/18/2017,12:30,97.9,97.95,97.88,97.88,7368
12/18/2017,12:35,97.88,97.93,97.87,97.89,7496
12/18/2017,12:40,97.9,97.9,97.82,97.86,16051
12/18/2017,12:45,97.85,97.94,97.84,97.93,21003
12/18/2017,12:50,97.91,97.94,97.87,97.89,13567
12/18/2017,12:55,97.88,97.88,97.78,97.78,14448
12/18/2017,13:00,97.79,97.79,97.71,97.73,18941
12/18/2017,13:05,97.74,97.77,97.71,97.77,7765
12/18/2017,13:10,97.75,97.8,97.74,97.77,10262
12/18/2017,13:15,97.75,97.91,97.74,97.86,9679
12/18/2017,13:20,97.86,98.03,97.86,98.02,20241
12/18/2017,13:25,98.03,98.07,97.98,98.02,18818
12/18/2017,13:30,98.03,98.04,98.01,98.02,10032
12/18/2017,13:35,98.03,98.09,98.02,98.07,28679
12/18/2017,13:40,98.06,98.16,98.05,98.16,43669
12/18/2017,13:45,98.15,98.18,98.14,98.14,36914
12/18/2017,13:50,98.14,98.17,98.08,98.08,14221
12/18/2017,13:55,98.08,98.12,97.98,97.98,14429
12/18/2017,14:00,98.02,98.07,98.02,98.03,11924
12/18/2017,14:05,98.06,98.1,98.03,98.07,11971
12/18/2017,14:10,98.09,98.1,97.98,98,17782
12/18/2017,14:15,97.97,98,97.95,98,3470
12/18/2017,14:20,97.98,98.02,97.98,98.02,15069
12/18/2017,14:25,98.05,98.13,98.05,98.13,26710
12/18/2017,14:30,98.12,98.18,98.11,98.11,21201
12/18/2017,14:35,98.12,98.12,98.07,98.1,6941
12/18/2017,14:40,98.12,98.12,98.07,98.07,10516
12/18/2017,14:45,98.09,98.12,98.06,98.12,8579
12/18/2017,14:50,98.11,98.16,98.1,98.13,11102
12/18/2017,14:55,98.13,98.13,98.07,98.08,10074
12/18/2017,15:00,98.1,98.16,98.09,98.12,15844
12/18/2017,15:05,98.12,98.14,98.09,98.09,9702
12/18/2017,15:10,98.1,98.17,98.09,98.17,11593
12/18/2017,15:15,98.18,98.21,98.14,98.16,13519
12/18/2017,15:20,98.17,98.21,98.07,98.1,13457
12/18/2017,15:25,98.11,98.22,98.11,98.2,14530
12/18/2017,15:30,98.21,98.22,98.13,98.21,27054
12/18/2017,15:35,98.22,98.26,98.19,98.26,40980
12/18/2017,15:40,98.26,98.35,98.24,98.27,41749
12/18/2017,15:45,98.26,98.37,98.24,98.35,45718
12/18/2017,15:50,98.35,98.35,98.23,98.26,74018
12/18/2017,15:55,98.25,98.25,98.07,98.11,210939
12/18/2017,16:00,98.11,98.11,98.11,98.11,299004
12/18/2017,16:20,98.11,98.11,98.11,98.11,9674
12/18/2017,18:15,98.11,98.11,98.11,98.11,63348
12/19/2017,09:05,98.64,98.64,98.55,98.55,611
12/19/2017,09:30,98.54,98.54,97.89,98.24,52815
12/19/2017,09:35,98.28,98.55,98.04,98.26,35320
12/19/2017,09:40,98.31,98.56,98.28,98.54,22464
12/19/2017,09:45,98.56,98.75,98.37,98.7,25777
12/19/2017,09:50,98.71,99.01,98.68,98.93,25715
12/19/2017,09:55,98.91,99.03,98.83,99.02,19401
12/19/2017,10:00,98.98,99.22,98.9,99.15,16857
12/19/2017,10:05,99.15,99.31,99.1,99.27,14462
12/19/2017,10:10,99.25,99.45,99.19,99.45,20621
12/19/2017,10:15,99.46,99.62,99.31,99.62,18231
12/19/2017,10:20,99.63,99.85,99.62,99.8,21808
12/19/2017,10:25,99.8,99.97,99.77,99.82,18539
12/19/2017,10:30,99.82,99.9,99.72,99.84,20791
12/19/2017,10:35,99.76,99.86,99.71,99.86,12629
12/19/2017,10:40,99.86,99.86,99.58,99.68,18342
12/19/2017,10:45,99.69,99.73,99.55,99.64,10786
12/19/2017,10:50,99.66,99.76,99.66,99.7,9112
12/19/2017,10:55,99.71,99.73,99.54,99.63,27866
12/19/2017,11:00,99.65,99.72,99.55,99.55,11536
12/19/2017,11:05,99.55,99.72,99.51,99.72,18551
12/19/2017,11:10,99.72,99.74,99.51,99.52,13854
12/19/2017,11:15,99.51,99.63,99.51,99.6,18992
12/19/2017,11:20,99.6,99.6,99.5,99.55,15161
12/19/2017,11:25,99.55,99.75,99.55,99.67,16384
12/19/2017,11:30,99.64,99.68,99.51,99.52,16305
12/19/2017,11:35,99.52,99.6,99.49,99.53,14020
12/19/2017,11:40,99.49,99.52,99.36,99.47,29242
12/19/2017,11:45,99.47,99.5,99.21,99.38,32073
12/19/2017,11:50,99.42,99.52,99.37,99.43,26525
12/19/2017,11:55,99.43,99.56,99.35,99.39,11367
12/19/2017,12:00,99.37,99.44,99.33,99.41,11086
12/19/2017,12:05,99.42,99.42,99.31,99.31,10247
12/19/2017,12:10,99.3,99.34,99.24,99.33,14977
12/19/2017,12:15,99.34,99.48,99.34,99.4,15622
12/19/2017,12:20,99.37,99.41,99.32,99.32,11272
12/19/2017,12:25,99.33,99.36,99.3,99.32,12731
12/19/2017,12:30,99.32,99.44,99.32,99.41,9108
12/19/2017,12:35,99.42,99.48,99.38,99.38,14911
12/19/2017,12:40,99.37,99.38,99.3,99.34,14727
12/19/2017,12:45,99.35,99.57,99.31,99.57,32203
12/19/2017,12:50,99.56,99.56,99.42,99.54,10491
12/19/2017,12:55,99.54,99.62,99.5,99.55,25958
12/19/2017,13:00,99.55,99.63,99.52,99.63,13151
12/19/2017,13:05,99.63,99.63,99.44,99.45,16011
12/19/2017,13:10,99.46,99.54,99.43,99.53,16727
12/19/2017,13:15,99.53,99.58,99.45,99.58,16428
12/19/2017,13:20,99.57,99.71,99.57,99.66,13266
12/19/2017,13:25,99.66,99.66,99.61,99.61,13802
12/19/2017,13:30,99.61,99.65,99.55,99.6,30824
12/19/2017,13:35,99.6,99.65,99.54,99.56,15326
12/19/2017,13:40,99.5,99.56,99.47,99.47,15401
12/19/2017,13:45,99.47,99.66,99.47,99.65,12828
12/19/2017,13:50,99.65,99.75,99.62,99.71,19888
12/19/2017,13:55,99.71,99.78,99.71,99.76,16129
12/19/2017,14:00,99.78,99.78,99.67,99.68,12164
12/19/2017,14:05,99.67,99.73,99.67,99.68,11329
12/19/2017,14:10,99.68,99.76,99.64,99.67,20402
12/19/2017,14:15,99.67,99.75,99.65,99.65,20181
12/19/2017,14:20,99.65,99.86,99.64,99.84,29578
12/19/2017,14:25,99.86,99.87,99.78,99.86,11739
12/19/2017,14:30,99.84,99.84,99.75,99.76,12890
12/19/2017,14:35,99.75,99.75,99.56,99.61,24302
12/19/2017,14:40,99.62,99.64,99.5,99.58,27490
12/19/2017,14:45,99.59,99.6,99.48,99.51,16417
12/19/2017,14:50,99.51,99.58,99.48,99.56,20596
12/19/2017,14:55,99.56,99.59,99.53,99.58,12966
12/19/2017,15:00,99.57,99.64,99.54,99.62,24640
12/19/2017,15:05,99.61,99.66,99.57,99.6,29115
12/19/2017,15:10,99.6,99.67,99.57,99.65,28971
12/19/2017,15:15,99.64,99.67,99.59,99.66,20063
12/19/2017,15:20,99.66,99.7,99.65,99.66,14786
12/19/2017,15:25,99.66,99.67,99.61,99.62,14455
12/19/2017,15:30,99.63,99.64,99.54,99.59,24677
12/19/2017,15:35,99.61,99.76,99.61,99.68,30025
12/19/2017,15:40,99.68,99.72,99.64,99.65,37537
12/19/2017,15:45,99.64,99.67,99.62,99.66,41115
12/19/2017,15:50,99.67,99.7,99.61,99.63,69847
12/19/2017,15:55,99.63,99.65,99.52,99.58,152026
12/19/2017,16:00,99.61,99.61,99.61,99.61,254798
12/20/2017,09:30,100.21,100.25,99.7,99.76,46010
12/20/2017,09:35,99.78,100.03,99.74,100,11328
12/20/2017,09:40,99.94,100.13,99.73,99.9,15909
12/20/2017,09:45,99.91,100.03,99.81,99.87,40276
12/20/2017,09:50,99.85,99.97,99.56,99.61,20748
12/20/2017,09:55,99.57,99.67,99.39,99.66,12970
12/20/2017,10:00,99.84,99.84,99.63,99.73,9115
12/20/2017,10:05,99.78,99.88,99.74,99.83,8646
12/20/2017,10:10,99.8,99.87,99.76,99.83,4278
12/20/2017,10:15,99.83,99.83,99.66,99.82,8162
12/20/2017,10:20,99.81,100.01,99.76,99.94,10013
12/20/2017,10:25,99.98,100,99.82,99.85,8764
12/20/2017,10:30,99.85,100.02,99.78,99.91,19038
12/20/2017,10:35,99.92,100,99.87,99.94,13380
12/20/2017,10:40,99.95,100.01,99.73,99.76,21145
12/20/2017,10:45,99.8,100.13,99.8,100.07,40580
12/20/2017,10:50,100.06,100.32,100.05,100.27,17899
12/20/2017,10:55,100.26,100.36,100.15,100.36,13390
12/20/2017,11:00,100.41,100.52,100.39,100.39,9958
12/20/2017,11:05,100.41,100.6,100.41,100.56,21461
12/20/2017,11:10,100.57,100.69,100.51,100.64,24057
12/20/2017,11:15,100.62,100.64,100.49,100.63,10921
12/20/2017,11:20,100.65,100.84,100.65,100.84,15145
12/20/2017,11:25,100.85,101.07,100.85,101.01,27214
12/20/2017,11:30,101.05,101.07,100.85,100.91,30204
12/20/2017,11:35,100.92,101.11,100.88,101.06,12623
12/20/2017,11:40,101.06,101.44,101.06,101.38,44876
12/20/2017,11:45,101.4,101.43,101.34,101.34,26821
12/20/2017,11:50,101.31,101.42,101.31,101.35,15604
12/20/2017,11:55,101.35,101.35,101.09,101.11,18795
12/20/2017,12:00,101.09,101.11,100.97,101,18800
12/20/2017,12:05,101.01,101.02,100.89,100.96,12746
12/20/2017,12:10,100.96,101.04,100.92,100.93,11471
12/20/2017,12:15,100.95,101,100.89,101,11090
12/20/2017,12:20,101,101.13,100.96,101.12,10440
12/20/2017,12:25,101.12,101.15,101.06,101.09,21842
12/20/2017,12:30,101.05,101.06,100.78,100.78,27264
12/20/2017,12:35,100.77,100.81,100.74,100.77,16650
12/20/2017,12:40,100.78,100.99,100.77,100.95,9670
12/20/2017,12:45,100.99,101.07,100.94,100.94,10212
12/20/2017,12:50,100.93,101.02,100.85,100.92,8447
12/20/2017,12:55,100.92,100.97,100.84,100.97,8806
12/20/2017,13:00,100.98,101.03,100.92,101.01,10254
12/20/2017,13:05,101.02,101.16,101.02,101.16,12595
12/20/2017,13:10,101.17,101.2,101.12,101.15,4608
12/20/2017,13:15,101.13,101.18,101.06,101.06,9993
12/20/2017,13:20,101.06,101.13,101.06,101.13,8416
12/20/2017,13:25,101.12,101.12,101.01,101.03,18153
12/20/2017,13:30,101.02,101.06,100.97,100.99,8854
12/20/2017,13:35,100.99,101.15,100.98,101.13,5158
12/20/2017,13:40,101.12,101.31,101.11,101.31,7224
12/20/2017,13:45,101.3,101.32,101.21,101.31,24690
12/20/2017,13:50,101.3,101.34,101.25,101.34,16311
12/20/2017,13:55,101.32,101.43,101.32,101.41,13147
12/20/2017,14:00,101.41,101.62,101.35,101.62,58219
12/20/2017,14:05,101.61,101.71,101.59,101.61,18619
12/20/2017,14:10,101.61,101.71,101.61,101.66,17128
12/20/2017,14:15,101.66,101.67,101.6,101.64,21956
12/20/2017,14:20,101.63,101.74,101.6,101.74,36129
12/20/2017,14:25,101.74,101.79,101.71,101.76,32387
12/20/2017,14:30,101.75,101.76,101.64,101.75,26066
12/20/2017,14:35,101.74,101.74,101.61,101.65,55684
12/20/2017,14:40,101.64,101.77,101.53,101.53,38204
12/20/2017,14:45,101.51,101.54,101.42,101.47,22736
12/20/2017,14:50,101.47,101.49,101.37,101.48,24119
12/20/2017,14:55,101.49,101.54,101.48,101.51,19923
12/20/2017,15:00,101.51,101.52,101.45,101.49,18155
12/20/2017,15:05,101.5,101.5,101.43,101.43,19756
12/20/2017,15:10,101.42,101.52,101.38,101.49,26932
12/20/2017,15:15,101.5,101.59,101.45,101.57,36376
12/20/2017,15:20,101.58,101.74,101.56,101.74,21680
12/20/2017,15:25,101.75,101.83,101.72,101.78,29411
12/20/2017,15:30,101.77,101.84,101.73,101.83,40677
12/20/2017,15:35,101.84,101.89,101.8,101.85,36695
12/20/2017,15:40,101.85,101.9,101.85,101.89,31656
12/20/2017,15:45,101.9,101.93,101.86,101.91,59572
12/20/2017,15:50,101.9,101.95,101.83,101.83,64302
12/20/2017,15:55,101.84,101.84,101.66,101.68,169630
12/20/2017,16:00,101.69,101.69,101.68,101.68,410860
12/20/2017,16:40,101.54,101.54,101.54,101.54,509
12/20/2017,16:55,101.68,101.68,101.68,101.68,899
12/21/2017,09:25,101.39,101.39,101.39,101.39,509
12/21/2017,09:30,101.86,102.06,101.38,102,31039
12/21/2017,09:35,101.86,101.9,101.66,101.8,11232
12/21/2017,09:40,101.85,102.23,101.77,102.13,28655
12/21/2017,09:45,102.19,102.42,102.16,102.42,15000
12/21/2017,09:50,102.43,102.43,102.18,102.31,17560
12/21/2017,09:55,102.39,102.55,102.35,102.55,16558
12/21/2017,10:00,102.56,102.73,102.4,102.73,26089
12/21/2017,10:05,102.75,102.97,102.68,102.68,32873
12/21/2017,10:10,102.71,102.71,102.47,102.53,31896
12/21/2017,10:15,102.53,102.8,102.52,102.68,20803
12/21/2017,10:20,102.7,103,102.69,102.83,32024
12/21/2017,10:25,102.84,103.17,102.82,103.14,80163
12/21/2017,10:30,103.13,103.67,103.13,103.67,58383
12/21/2017,10:35,103.7,103.91,103.55,103.66,35334
12/21/2017,10:40,103.66,103.71,103.54,103.57,39873
12/21/2017,10:45,103.6,103.69,103.51,103.54,48194
12/21/2017,10:50,103.55,103.64,103.47,103.63,50700
12/21/2017,10:55,103.62,103.78,103.58,103.69,49812
12/21/2017,11:00,103.68,103.72,103.36,103.36,17906
12/21/2017,11:05,103.36,103.56,103.36,103.55,15835
12/21/2017,11:10,103.54,103.56,103.34,103.49,19186
12/21/2017,11:15,103.51,103.67,103.49,103.5,19301
12/21/2017,11:20,103.5,103.8,103.5,103.72,35808
12/21/2017,11:25,103.75,103.87,103.71,103.74,24587
12/21/2017,11:30,103.76,103.88,103.67,103.67,15743
12/21/2017,11:35,103.68,103.87,103.68,103.85,12750
12/21/2017,11:40,103.88,104.03,103.88,103.97,18793
12/21/2017,11:45,104,104,103.83,103.83,10441
12/21/2017,11:50,103.87,104.05,103.87,104.04,18111
12/21/2017,11:55,104.04,104.04,103.94,103.94,9202
12/21/2017,12:00,103.95,103.97,103.75,103.86,35420
12/21/2017,12:05,103.88,103.92,103.75,103.75,11969
12/21/2017,12:10,103.76,103.78,103.62,103.68,9172
12/21/2017,12:15,103.7,103.88,103.7,103.86,14150
12/21/2017,12:20,103.87,103.91,103.83,103.86,5310
12/21/2017,12:25,103.86,103.89,103.74,103.77,14063
12/21/2017,12:30,103.8,104,103.8,103.98,9724
12/21/2017,12:35,103.98,104.07,103.96,104.07,15368
12/21/2017,12:40,104.06,104.09,103.98,104.01,9288
12/21/2017,12:45,104.02,104.03,103.9,103.97,12505
12/21/2017,12:50,104,104.17,104,104.13,34793
12/21/2017,12:55,104.12,104.29,104.12,104.22,18253
12/21/2017,13:00,104.23,104.25,104.08,104.1,8486
12/21/2017,13:05,104.1,104.58,104.08,104.57,89056
12/21/2017,13:10,104.58,104.7,104.52,104.66,52666
12/21/2017,13:15,104.64,104.66,104.43,104.5,17661
12/21/2017,13:20,104.51,104.51,104.35,104.36,9940
12/21/2017,13:25,104.38,104.45,104.35,104.44,10834
12/21/2017,13:30,104.42,104.42,104.3,104.3,13021
12/21/2017,13:35,104.31,104.44,104.31,104.39,17574
12/21/2017,13:40,104.4,104.47,104.28,104.37,13600
12/21/2017,13:45,104.36,104.39,104.31,104.37,17371
12/21/2017,13:50,104.36,104.38,104.23,104.29,21936
12/21/2017,13:55,104.28,104.33,104.24,104.33,8233
12/21/2017,14:00,104.33,104.43,104.29,104.39,11186
12/21/2017,14:05,104.41,104.57,104.36,104.54,18313
12/21/2017,14:10,104.54,104.57,104.46,104.48,16553
12/21/2017,14:15,104.48,104.57,104.47,104.51,19341
12/21/2017,14:20,104.51,104.72,104.5,104.52,61839
12/21/2017,14:25,104.51,104.58,104.45,104.45,55395
12/21/2017,14:30,104.45,104.45,104.27,104.27,27296
12/21/2017,14:35,104.27,104.3,104.2,104.22,28095
12/21/2017,14:40,104.23,104.24,104.13,104.15,32114
12/21/2017,14:45,104.14,104.19,104.1,104.16,33183
12/21/2017,14:50,104.16,104.2,104.12,104.17,23583
12/21/2017,14:55,104.17,104.19,104.14,104.17,16194
12/21/2017,15:00,104.17,104.24,104.17,104.18,22931
12/21/2017,15:05,104.18,104.26,104.07,104.26,52595
12/21/2017,15:10,104.26,104.4,104.24,104.38,28085
12/21/2017,15:15,104.38,104.44,104.32,104.33,21100
12/21/2017,15:20,104.33,104.57,104.32,104.51,25714
12/21/2017,15:25,104.52,104.62,104.52,104.59,33755
12/21/2017,15:30,104.59,104.77,104.57,104.77,54165
12/21/2017,15:35,104.78,104.83,104.71,104.73,56984
12/21/2017,15:40,104.72,104.73,104.58,104.6,50968
12/21/2017,15:45,104.59,104.6,104.4,104.43,75184
12/21/2017,15:50,104.43,104.51,104.4,104.44,90517
12/21/2017,15:55,104.44,104.48,104.34,104.45,173580
12/21/2017,16:00,104.44,104.44,104.44,104.44,282633
12/21/2017,16:15,104.44,104.44,104.44,104.44,12824
12/21/2017,19:30,104.58,104.58,104.58,104.58,102
12/22/2017,09:30,104.78,104.78,104.14,104.46,41364
12/22/2017,09:35,104.51,104.54,103.98,104.26,20958
12/22/2017,09:40,104.27,104.58,104.27,104.43,16050
12/22/2017,09:45,104.48,104.75,104.46,104.74,23961
12/22/2017,09:50,104.74,104.81,104.62,104.67,12852
12/22/2017,09:55,104.69,104.97,104.67,104.96,14508
12/22/2017,10:00,104.93,104.95,104.64,104.71,19066
12/22/2017,10:05,104.69,105.17,104.69,105.1,29694
12/22/2017,10:10,105.1,105.24,105.04,105.1,35531
12/22/2017,10:15,105.07,105.09,104.87,104.98,13566
12/22/2017,10:20,104.98,105.05,104.85,104.92,14420
12/22/2017,10:25,104.9,105.01,104.89,104.97,11259
12/22/2017,10:30,104.96,105.13,104.93,105.06,14087
12/22/2017,10:35,105.07,105.4,105.02,105.4,59697
12/22/2017,10:40,105.4,105.42,105.12,105.18,16066
12/22/2017,10:45,105.16,105.27,105.09,105.1,16508
12/22/2017,10:50,105.12,105.29,104.94,105.29,12741
12/22/2017,10:55,105.27,105.43,105.24,105.28,12845
12/22/2017,11:00,105.29,105.35,105.19,105.19,11848
12/22/2017,11:05,105.18,105.28,105.12,105.12,15107
12/22/2017,11:10,105.12,105.24,105.11,105.18,8367
12/22/2017,11:15,105.18,105.37,105.17,105.35,10999
12/22/2017,11:20,105.34,105.39,105.25,105.27,27108
12/22/2017,11:25,105.3,105.39,105.23,105.28,13912
12/22/2017,11:30,105.27,105.38,105.2,105.28,17360
12/22/2017,11:35,105.28,105.35,105.21,105.35,16478
12/22/2017,11:40,105.34,105.53,105.34,105.4,22896
12/22/2017,11:45,105.39,105.59,105.39,105.53,13059
12/22/2017,11:50,105.55,105.78,105.53,105.75,16461
12/22/2017,11:55,105.74,105.8,105.68,105.68,10517
12/22/2017,12:00,105.69,105.79,105.64,105.79,10278
12/22/2017,12:05,105.8,105.86,105.77,105.8,10084
12/22/2017,12:10,105.8,105.89,105.79,105.85,10045
12/22/2017,12:15,105.83,105.85,105.74,105.76,9898
12/22/2017,12:20,105.76,105.82,105.71,105.76,29171
12/22/2017,12:25,105.76,105.84,105.74,105.74,12508
12/22/2017,12:30,105.79,105.87,105.68,105.84,13411
12/22/2017,12:35,105.84,105.87,105.79,105.87,16111
12/22/2017,12:40,105.88,105.93,105.81,105.85,11803
12/22/2017,12:45,105.85,105.94,105.85,105.9,11358
12/22/2017,12:50,105.9,105.9,105.82,105.82,10868
12/22/2017,12:55,105.79,105.87,105.77,105.82,26282
12/22/2017,13:00,105.82,105.88,105.73,105.73,14354
12/22/2017,13:05,105.73,105.83,105.73,105.79,18121
12/22/2017,13:10,105.8,105.8,105.62,105.69,21313
12/22/2017,13:15,105.67,105.7,105.62,105.64,21219
12/22/2017,13:20,105.64,105.65,105.43,105.46,16150
12/22/2017,13:25,105.49,105.53,105.45,105.5,13509
12/22/2017,13:30,105.51,105.52,105.42,105.46,7121
12/22/2017,13:35,105.44,105.49,105.37,105.41,9324
12/22/2017,13:40,105.4,105.45,105.33,105.34,7894
12/22/2017,13:45,105.33,105.42,105.33,105.39,10643
12/22/2017,13:50,105.4,105.44,105.37,105.43,11677
12/22/2017,13:55,105.44,105.49,105.38,105.4,9516
12/22/2017,14:00,105.4,105.45,105.37,105.37,11327
12/22/2017,14:05,105.38,105.41,105.33,105.37,10656
12/22/2017,14:10,105.37,105.44,105.33,105.44,9518
12/22/2017,14:15,105.42,105.47,105.39,105.45,19574
12/22/2017,14:20,105.46,105.47,105.35,105.41,22307
12/22/2017,14:25,105.4,105.41,105.25,105.26,10789
12/22/2017,14:30,105.25,105.33,105.24,105.28,10734
12/22/2017,14:35,105.28,105.33,105.28,105.29,8238
12/22/2017,14:40,105.29,105.34,105.27,105.3,10578
12/22/2017,14:45,105.27,105.3,105.22,105.22,15928
12/22/2017,14:50,105.22,105.26,105.19,105.22,14837
12/22/2017,14:55,105.22,105.27,105.17,105.23,23853
12/22/2017,15:00,105.23,105.34,105.2,105.22,26925
12/22/2017,15:05,105.21,105.24,105.16,105.17,14011
12/22/2017,15:10,105.17,105.2,105.12,105.18,16122
12/22/2017,15:15,105.19,105.23,105.19,105.21,12474
12/22/2017,15:20,105.2,105.28,105.19,105.26,13661
12/22/2017,15:25,105.27,105.31,105.17,105.18,18971
12/22/2017,15:30,105.17,105.18,105.08,105.11,21306
12/22/2017,15:35,105.12,105.2,105.12,105.14,23014
12/22/2017,15:40,105.15,105.25,105.14,105.16,29497
12/22/2017,15:45,105.15,105.2,105.12,105.17,37393
12/22/2017,15:50,105.17,105.2,105.1,105.15,61517
12/22/2017,15:55,105.15,105.25,105.13,105.22,106443
12/22/2017,16:00,105.18,105.18,105.18,105.18,257124
12/22/2017,16:30,105.18,105.18,105.18,105.18,868
12/26/2017,07:00,104.09,104.09,104.09,104.09,102
12/26/2017,07:20,104.58,104.58,104.58,104.58,102
12/26/2017,09:15,105.32,105.32,105.32,105.32,204
12/26/2017,09:20,105.09,105.09,105.09,105.09,102
12/26/2017,09:30,105.31,105.69,105.14,105.48,26586
12/26/2017,09:35,105.62,105.81,105.45,105.53,8306
12/26/2017,09:40,105.54,105.54,105.21,105.27,28172
12/26/2017,09:45,105.33,105.45,105.2,105.2,8127
12/26/2017,09:50,105.27,105.41,105.08,105.09,5364
12/26/2017,09:55,105.11,105.47,105.09,105.47,5514
12/26/2017,10:00,105.42,105.55,105.25,105.53,8203
12/26/2017,10:05,105.52,105.71,105.47,105.71,6666
12/26/2017,10:10,105.7,105.79,105.63,105.79,6481
12/26/2017,10:15,105.77,106.12,105.71,106.07,69326
12/26/2017,10:20,106.09,106.35,106.08,106.19,23057
12/26/2017,10:25,106.24,106.76,106.22,106.76,15506
12/26/2017,10:30,106.77,107.22,106.77,107.02,47372
12/26/2017,10:35,107.06,107.18,106.99,107.18,34783
12/26/2017,10:40,107.14,107.28,107.04,107.12,51725
12/26/2017,10:45,107.16,107.23,107.01,107.04,26903
12/26/2017,10:50,107.05,107.18,107.02,107.11,25985
12/26/2017,10:55,107.07,107.22,107.02,107.14,27318
12/26/2017,11:00,107.15,107.23,107.04,107.15,30793
12/26/2017,11:05,107.16,107.23,107.11,107.2,25471
12/26/2017,11:10,107.21,107.3,107.14,107.29,33121
12/26/2017,11:15,107.29,107.42,107.17,107.26,32934
12/26/2017,11:20,107.25,107.39,107.23,107.28,10859
12/26/2017,11:25,107.27,107.41,107.27,107.37,15636
12/26/2017,11:30,107.37,107.52,107.37,107.4,30436
12/26/2017,11:35,107.38,107.5,107.38,107.43,10240
12/26/2017,11:40,107.43,107.53,107.33,107.37,12059
12/26/2017,11:45,107.38,107.48,107.38,107.48,8931
12/26/2017,11:50,107.47,107.56,107.46,107.46,19586
12/26/2017,11:55,107.46,107.5,107.37,107.39,12959
12/26/2017,12:00,107.38,107.46,107.33,107.36,9011
12/26/2017,12:05,107.35,107.37,107.27,107.35,9078
12/26/2017,12:10,107.37,107.49,107.35,107.45,10605
12/26/2017,12:15,107.49,107.54,107.43,107.48,11190
12/26/2017,12:20,107.45,107.53,107.42,107.45,17128
12/26/2017,12:25,107.45,107.54,107.43,107.54,18918
12/26/2017,12:30,107.52,107.56,107.46,107.49,14624
12/26/2017,12:35,107.46,107.5,107.46,107.48,7087
12/26/2017,12:40,107.47,107.52,107.43,107.48,13682
12/26/2017,12:45,107.49,107.58,107.46,107.56,27012
12/26/2017,12:50,107.56,107.69,107.56,107.66,12617
12/26/2017,12:55,107.68,107.69,107.59,107.61,9896
12/26/2017,13:00,107.62,107.64,107.49,107.57,7173
12/26/2017,13:05,107.55,107.58,107.49,107.52,4793
12/26/2017,13:10,107.52,107.57,107.5,107.53,18105
12/26/2017,13:15,107.51,107.54,107.41,107.43,14365
12/26/2017,13:20,107.43,107.48,107.38,107.42,14859
12/26/2017,13:25,107.42,107.42,107.33,107.34,9712
12/26/2017,13:30,107.34,107.34,107.22,107.23,13443
12/26/2017,13:35,107.23,107.31,107.23,107.31,11465
12/26/2017,13:40,107.31,107.34,107.22,107.23,9576
12/26/2017,13:45,107.23,107.31,107.2,107.22,9169
12/26/2017,13:50,107.23,107.25,107.19,107.23,11302
12/26/2017,13:55,107.25,107.26,107.18,107.22,9996
12/26/2017,14:00,107.23,107.25,107.18,107.22,19832
12/26/2017,14:05,107.22,107.27,107.04,107.09,39944
12/26/2017,14:10,107.08,107.15,107.03,107.15,13607
12/26/2017,14:15,107.12,107.24,107.12,107.18,10975
12/26/2017,14:20,107.19,107.32,107.18,107.3,21659
12/26/2017,14:25,107.26,107.28,107.18,107.25,15019
12/26/2017,14:30,107.25,107.28,107.23,107.28,15128
12/26/2017,14:35,107.3,107.34,107.27,107.32,12935
12/26/2017,14:40,107.31,107.39,107.31,107.39,14815
12/26/2017,14:45,107.4,107.43,107.35,107.39,20983
12/26/2017,14:50,107.4,107.45,107.39,107.44,11193
12/26/2017,14:55,107.44,107.49,107.38,107.42,18164
12/26/2017,15:00,107.42,107.43,107.38,107.41,19023
12/26/2017,15:05,107.41,107.53,107.41,107.53,19941
12/26/2017,15:10,107.52,107.55,107.45,107.46,29504
12/26/2017,15:15,107.44,107.47,107.27,107.3,24899
12/26/2017,15:20,107.29,107.33,107.24,107.31,19167
12/26/2017,15:25,107.31,107.31,107.16,107.17,23744
12/26/2017,15:30,107.16,107.2,107.15,107.15,21547
12/26/2017,15:35,107.16,107.24,107.15,107.24,35224
12/26/2017,15:40,107.22,107.27,107.22,107.26,33557
12/26/2017,15:45,107.25,107.35,107.24,107.3,64495
12/26/2017,15:50,107.31,107.38,107.29,107.37,57596
12/26/2017,15:55,107.36,107.5,107.35,107.45,140721
12/26/2017,16:00,107.44,107.44,107.44,107.44,144086
12/26/2017,16:40,107.73,107.73,107.73,107.73,280
12/26/2017,17:10,107.63,107.63,107.63,107.63,102
12/26/2017,17:45,107.53,107.53,107.53,107.53,204
12/26/2017,18:50,107.63,107.63,107.63,107.63,102
12/26/2017,19:50,107.63,107.63,107.63,107.63,204
12/27/2017,09:30,107.1,107.33,106.32,106.34,70852
12/27/2017,09:35,106.4,106.5,106.22,106.26,35485
12/27/2017,09:40,106.26,106.47,106.22,106.45,33380
12/27/2017,09:45,106.47,106.74,106.41,106.62,35835
12/27/2017,09:50,106.59,106.93,106.45,106.85,35138
12/27/2017,09:55,106.8,106.85,106.53,106.64,49186
12/27/2017,10:00,106.65,106.74,106.52,106.63,28039
12/27/2017,10:05,106.62,106.62,106.22,106.22,12829
12/27/2017,10:10,106.22,106.24,106.04,106.06,30102
12/27/2017,10:15,106.04,106.06,105.95,105.99,24936
12/27/2017,10:20,105.98,106.14,105.93,106.14,11674
12/27/2017,10:25,106.14,106.17,106,106,21679
12/27/2017,10:30,105.98,106.04,105.78,105.88,61920
12/27/2017,10:35,105.89,106.04,105.84,106.04,14645
12/27/2017,10:40,106.06,106.1,105.99,106,8974
12/27/2017,10:45,106.03,106.05,105.9,105.96,13673
12/27/2017,10:50,105.96,106.09,105.92,106.09,13598
12/27/2017,10:55,106.12,106.22,106.07,106.21,12134
12/27/2017,11:00,106.2,106.21,106.06,106.15,12037
12/27/2017,11:05,106.14,106.27,106.14,106.24,8364
12/27/2017,11:10,106.24,106.32,106.15,106.22,7253
12/27/2017,11:15,106.24,106.55,106.24,106.49,9370
12/27/2017,11:20,106.49,106.63,106.38,106.63,8305
12/27/2017,11:25,106.6,106.64,106.34,106.34,11562
12/27/2017,11:30,106.34,106.37,106.22,106.33,8952
12/27/2017,11:35,106.28,106.36,106.25,106.3,7538
12/27/2017,11:40,106.26,106.31,106.14,106.22,11080
12/27/2017,11:45,106.24,106.42,106.2,106.39,11043
12/27/2017,11:50,106.38,106.41,106.26,106.36,6564
12/27/2017,11:55,106.35,106.44,106.34,106.34,3566
12/27/2017,12:00,106.38,106.48,106.32,106.48,6200
12/27/2017,12:05,106.47,106.58,106.45,106.54,6177
12/27/2017,12:10,106.57,106.6,106.52,106.56,5036
12/27/2017,12:15,106.53,106.57,106.47,106.55,7277
12/27/2017,12:20,106.55,106.57,106.46,106.46,2851
12/27/2017,12:25,106.47,106.54,106.41,106.46,6163
12/27/2017,12:30,106.44,106.45,106.33,106.37,5621
12/27/2017,12:35,106.38,106.41,106.31,106.34,3783
12/27/2017,12:40,106.33,106.39,106.31,106.35,4778
12/27/2017,12:45,106.36,106.38,106.23,106.23,4949
12/27/2017,12:50,106.19,106.23,106.09,106.15,6892
12/27/2017,12:55,106.12,106.16,106.02,106.14,6095
12/27/2017,13:00,106.12,106.28,106.1,106.25,4956
12/27/2017,13:05,106.28,106.38,106.28,106.36,4837
12/27/2017,13:10,106.36,106.42,106.31,106.33,5723
12/27/2017,13:15,106.31,106.34,106.22,106.27,4676
12/27/2017,13:20,106.29,106.33,106.21,106.24,3385
12/27/2017,13:25,106.26,106.27,106.18,106.2,7781
12/27/2017,13:30,106.17,106.33,106.17,106.31,5998
12/27/2017,13:35,106.34,106.35,106.26,106.33,4481
12/27/2017,13:40,106.32,106.37,106.29,106.31,6896
12/27/2017,13:45,106.32,106.36,106.29,106.35,11249
12/27/2017,13:50,106.36,106.37,106.28,106.28,6645
12/27/2017,13:55,106.27,106.36,106.26,106.36,7535
12/27/2017,14:00,106.36,106.48,106.36,106.46,7106
12/27/2017,14:05,106.48,106.49,106.44,106.49,3655
12/27/2017,14:10,106.49,106.59,106.37,106.4,23191
12/27/2017,14:15,106.42,106.54,106.42,106.44,24906
12/27/2017,14:20,106.43,106.46,106.37,106.39,7002
12/27/2017,14:25,106.35,106.54,106.33,106.42,26809
12/27/2017,14:30,106.41,106.56,106.41,106.5,8182
12/27/2017,14:35,106.49,106.52,106.45,106.5,9132
12/27/2017,14:40,106.51,106.65,106.48,106.64,10647
12/27/2017,14:45,106.63,106.66,106.61,106.61,6548
12/27/2017,14:50,106.63,106.65,106.58,106.6,12364
12/27/2017,14:55,106.59,106.62,106.55,106.62,16337
12/27/2017,15:00,106.62,106.65,106.6,106.61,14602
12/27/2017,15:05,106.61,106.62,106.55,106.59,19726
12/27/2017,15:10,106.59,106.61,106.57,106.61,12750
12/27/2017,15:15,106.61,106.65,106.6,106.62,20851
12/27/2017,15:20,106.62,106.62,106.43,106.43,16201
12/27/2017,15:25,106.41,106.49,106.38,106.48,18043
12/27/2017,15:30,106.48,106.48,106.38,106.4,26121
12/27/2017,15:35,106.4,106.4,106.31,106.34,27686
12/27/2017,15:40,106.34,106.45,106.3,106.44,22473
12/27/2017,15:45,106.43,106.47,106.35,106.39,38309
12/27/2017,15:50,106.4,106.44,106.36,106.38,37781
12/27/2017,15:55,106.37,106.43,106.28,106.39,116959
12/27/2017,16:00,106.41,106.41,106.41,106.41,270869
12/27/2017,16:35,106.41,106.41,106.41,106.41,10022
12/28/2017,09:30,106.55,106.64,106.25,106.44,21932
12/28/2017,09:35,106.51,106.58,106.32,106.4,8417
12/28/2017,09:40,106.37,106.49,106.22,106.49,21729
12/28/2017,09:45,106.46,106.57,106.26,106.54,13264
12/28/2017,09:50,106.51,106.67,106.46,106.52,26911
12/28/2017,09:55,106.54,106.63,106.24,106.27,25137
12/28/2017,10:00,106.3,106.5,106.21,106.42,17356
12/28/2017,10:05,106.43,106.43,106.2,106.24,11536
12/28/2017,10:10,106.24,106.45,106.23,106.26,15203
12/28/2017,10:15,106.28,106.41,106.25,106.27,25677
12/28/2017,10:20,106.26,106.41,106.22,106.23,16772
12/28/2017,10:25,106.22,106.22,105.93,105.94,54317
12/28/2017,10:30,105.93,106.35,105.92,106.28,9687
12/28/2017,10:35,106.32,106.41,106.24,106.24,4960
12/28/2017,10:40,106.2,106.32,106.12,106.29,4389
12/28/2017,10:45,106.28,106.46,106.28,106.41,4550
12/28/2017,10:50,106.45,106.46,106.4,106.41,6408
12/28/2017,10:55,106.38,106.44,106.27,106.39,7984
12/28/2017,11:00,106.35,106.6,106.35,106.45,4193
12/28/2017,11:05,106.42,106.62,106.39,106.61,5868
12/28/2017,11:10,106.63,106.63,106.46,106.54,5698
12/28/2017,11:15,106.54,106.54,106.33,106.37,5139
12/28/2017,11:20,106.38,106.38,106.28,106.35,3799
12/28/2017,11:25,106.33,106.33,106.22,106.27,2761
12/28/2017,11:30,106.27,106.4,106.24,106.26,8627
12/28/2017,11:35,106.25,106.3,106.23,106.28,7837
12/28/2017,11:40,106.29,106.36,106.27,106.33,4380
12/28/2017,11:45,106.31,106.42,106.31,106.41,4649
12/28/2017,11:50,106.43,106.59,106.43,106.58,8990
12/28/2017,11:55,106.56,106.61,106.51,106.51,29753
12/28/2017,12:00,106.46,106.5,106.28,106.28,6650
12/28/2017,12:05,106.26,106.36,106.24,106.33,7288
12/28/2017,12:10,106.33,106.42,106.33,106.41,7398
12/28/2017,12:15,106.42,106.44,106.25,106.25,5829
12/28/2017,12:20,106.26,106.32,106.24,106.31,6008
12/28/2017,12:25,106.32,106.35,106.25,106.27,4994
12/28/2017,12:30,106.27,106.35,106.27,106.35,6520
12/28/2017,12:35,106.35,106.41,106.32,106.37,7869
12/28/2017,12:40,106.37,106.42,106.33,106.42,6663
12/28/2017,12:45,106.43,106.5,106.42,106.43,3850
12/28/2017,12:50,106.45,106.49,106.4,106.49,2965
12/28/2017,12:55,106.5,106.53,106.44,106.46,6424
12/28/2017,13:00,106.47,106.53,106.47,106.52,4532
12/28/2017,13:05,106.51,106.52,106.45,106.45,2931
12/28/2017,13:10,106.44,106.49,106.41,106.41,6672
12/28/2017,13:15,106.43,106.51,106.43,106.51,4110
12/28/2017,13:20,106.52,106.57,106.52,106.53,6856
12/28/2017,13:25,106.53,106.54,106.49,106.5,1765
12/28/2017,13:30,106.49,106.54,106.49,106.54,5195
12/28/2017,13:35,106.52,106.59,106.52,106.59,4729
12/28/2017,13:40,106.58,106.6,106.56,106.58,6861
12/28/2017,13:45,106.58,106.66,106.58,106.65,6923
12/28/2017,13:50,106.66,106.68,106.58,106.58,3828
12/28/2017,13:55,106.55,106.62,106.55,106.62,8000
12/28/2017,14:00,106.62,106.64,106.6,106.6,5041
12/28/2017,14:05,106.59,106.6,106.54,106.55,4894
12/28/2017,14:10,106.55,106.55,106.5,106.51,3870
12/28/2017,14:15,106.53,106.58,106.51,106.54,7193
12/28/2017,14:20,106.55,106.58,106.55,106.56,5143
12/28/2017,14:25,106.56,106.56,106.48,106.49,4898
12/28/2017,14:30,106.51,106.51,106.43,106.46,5687
12/28/2017,14:35,106.45,106.53,106.45,106.52,11618
12/28/2017,14:40,106.54,106.56,106.49,106.53,19389
12/28/2017,14:45,106.54,106.57,106.53,106.56,11214
12/28/2017,14:50,106.56,106.58,106.48,106.55,19304
12/28/2017,14:55,106.54,106.56,106.47,106.52,8962
12/28/2017,15:00,106.53,106.53,106.47,106.49,12441
12/28/2017,15:05,106.49,106.57,106.48,106.54,9522
12/28/2017,15:10,106.55,106.56,106.52,106.54,9996
12/28/2017,15:15,106.55,106.56,106.53,106.53,17705
12/28/2017,15:20,106.53,106.56,106.47,106.52,40807
12/28/2017,15:25,106.53,106.53,106.5,106.52,9620
12/28/2017,15:30,106.52,106.54,106.5,106.54,17581
12/28/2017,15:35,106.55,106.6,106.54,106.56,10585
12/28/2017,15:40,106.56,106.61,106.55,106.58,14185
12/28/2017,15:45,106.59,106.6,106.51,106.53,17423
12/28/2017,15:50,106.54,106.56,106.52,106.56,23493
12/28/2017,15:55,106.55,106.61,106.49,106.49,103514
12/28/2017,16:00,106.5,106.5,106.5,106.5,134030
12/28/2017,16:10,106.5,106.5,106.5,106.5,4401
12/29/2017,09:30,107.15,107.15,106.57,106.69,30717
12/29/2017,09:35,106.76,106.97,106.63,106.96,20163
12/29/2017,09:40,106.9,106.96,106.49,106.61,16228
12/29/2017,09:45,106.49,106.58,106.1,106.22,28322
12/29/2017,09:50,106.15,106.18,105.94,106.1,49736
12/29/2017,09:55,106.07,106.22,105.94,106.14,31350
12/29/2017,10:00,106.17,106.45,106.17,106.42,18986
12/29/2017,10:05,106.39,106.57,106.24,106.35,17519
12/29/2017,10:10,106.31,106.39,106.17,106.17,10263
12/29/2017,10:15,106.14,106.42,106.14,106.42,9113
12/29/2017,10:20,106.4,106.45,106.33,106.35,9719
12/29/2017,10:25,106.35,106.42,106.23,106.27,12544
12/29/2017,10:30,106.29,106.46,106.29,106.4,12725
12/29/2017,10:35,106.4,106.49,106.39,106.42,8157
12/29/2017,10:40,106.4,106.43,106.34,106.38,6672
12/29/2017,10:45,106.39,106.46,106.39,106.41,9985
12/29/2017,10:50,106.43,106.45,106.37,106.44,13186
12/29/2017,10:55,106.41,106.59,106.4,106.51,20518
12/29/2017,11:00,106.48,106.51,106.45,106.47,7294
12/29/2017,11:05,106.46,106.48,106.39,106.47,8798
12/29/2017,11:10,106.45,106.49,106.43,106.47,6970
12/29/2017,11:15,106.45,106.54,106.45,106.49,8456
12/29/2017,11:20,106.51,106.68,106.51,106.63,9456
12/29/2017,11:25,106.63,106.69,106.57,106.57,7717
12/29/2017,11:30,106.58,106.62,106.51,106.57,10608
12/29/2017,11:35,106.57,106.64,106.56,106.59,10611
12/29/2017,11:40,106.58,106.71,106.58,106.71,6977
12/29/2017,11:45,106.69,106.69,106.54,106.67,7623
12/29/2017,11:50,106.68,106.69,106.49,106.52,5303
12/29/2017,11:55,106.52,106.68,106.52,106.68,5837
12/29/2017,12:00,106.68,106.7,106.56,106.56,7082
12/29/2017,12:05,106.58,106.66,106.58,106.64,5743
12/29/2017,12:10,106.66,106.68,106.59,106.6,6414
12/29/2017,12:15,106.6,106.65,106.54,106.56,5215
12/29/2017,12:20,106.57,106.7,106.55,106.7,5735
12/29/2017,12:25,106.71,106.8,106.68,106.78,12292
12/29/2017,12:30,106.77,106.79,106.67,106.69,2751
12/29/2017,12:35,106.67,106.72,106.61,106.64,5463
12/29/2017,12:40,106.66,106.66,106.59,106.62,4989
12/29/2017,12:45,106.63,106.68,106.63,106.65,7691
12/29/2017,12:50,106.65,106.67,106.59,106.64,3618
12/29/2017,12:55,106.63,106.63,106.58,106.59,3083
12/29/2017,13:00,106.6,106.63,106.57,106.6,4998
12/29/2017,13:05,106.59,106.69,106.58,106.66,6930
12/29/2017,13:10,106.64,106.65,106.55,106.57,18340
12/29/2017,13:15,106.55,106.59,106.51,106.59,4455
12/29/2017,13:20,106.57,106.58,106.52,106.55,3080
12/29/2017,13:25,106.55,106.56,106.45,106.5,5986
12/29/2017,13:30,106.52,106.57,106.51,106.51,5214
12/29/2017,13:35,106.5,106.52,106.46,106.49,4054
12/29/2017,13:40,106.51,106.51,106.43,106.46,5146
12/29/2017,13:45,106.46,106.52,106.42,106.51,4354
12/29/2017,13:50,106.5,106.58,106.5,106.57,4708
12/29/2017,13:55,106.59,106.59,106.48,106.5,7688
12/29/2017,14:00,106.51,106.51,106.34,106.34,8690
12/29/2017,14:05,106.35,106.43,106.25,106.43,15361
12/29/2017,14:10,106.43,106.5,106.43,106.46,6656
12/29/2017,14:15,106.46,106.54,106.46,106.51,15446
12/29/2017,14:20,106.51,106.57,106.46,106.57,11779
12/29/2017,14:25,106.57,106.59,106.5,106.5,9222
12/29/2017,14:30,106.49,106.52,106.45,106.52,7686
12/29/2017,14:35,106.5,106.51,106.43,106.45,13724
12/29/2017,14:40,106.45,106.48,106.43,106.46,7226
12/29/2017,14:45,106.47,106.47,106.39,106.4,17063
12/29/2017,14:50,106.39,106.4,106.35,106.36,10483
12/29/2017,14:55,106.36,106.37,106.33,106.36,10976
12/29/2017,15:00,106.35,106.37,106.31,106.37,8945
12/29/2017,15:05,106.35,106.36,106.32,106.35,19700
12/29/2017,15:10,106.33,106.36,106.33,106.35,7174
12/29/2017,15:15,106.36,106.42,106.35,106.39,15834
12/29/2017,15:20,106.4,106.45,106.35,106.43,24373
12/29/2017,15:25,106.43,106.43,106.22,106.22,16655
12/29/2017,15:30,106.22,106.24,106.2,106.21,25283
12/29/2017,15:35,106.21,106.22,106.1,106.13,29571
12/29/2017,15:40,106.12,106.18,106.07,106.17,22467
12/29/2017,15:45,106.18,106.25,106.16,106.22,33350
12/29/2017,15:50,106.22,106.23,106.12,106.12,38019
12/29/2017,15:55,106.12,106.18,105.95,106.02,175976
12/29/2017,16:00,106.23,106.23,105.97,105.97,424231
12/29/2017,16:05,105.17,105.17,105.17,105.17,255
01/02/2018,09:30,106.72,106.86,106.49,106.84,39091
01/02/2018,09:35,106.78,106.96,106.71,106.85,19406
01/02/2018,09:40,106.89,106.9,106.74,106.81,21915
01/02/2018,09:45,106.87,107.13,106.78,107.04,4323
01/02/2018,09:50,107.11,107.25,106.89,107.23,19839
01/02/2018,09:55,107.14,107.17,106.85,106.91,11047
01/02/2018,10:00,106.91,107.06,106.88,106.99,19480
01/02/2018,10:05,106.94,107,106.81,106.94,17728
01/02/2018,10:10,106.96,106.99,106.83,106.94,15918
01/02/2018,10:15,106.94,107.08,106.88,106.9,9387
01/02/2018,10:20,106.89,107.08,106.87,107.04,8856
01/02/2018,10:25,107.01,107.03,106.66,106.78,11951
01/02/2018,10:30,106.76,106.91,106.73,106.85,6442
01/02/2018,10:35,106.87,107.01,106.84,107.01,9452
01/02/2018,10:40,107.01,107.04,106.91,107.02,15471
01/02/2018,10:45,107.04,107.17,106.9,107.15,15500
01/02/2018,10:50,107.1,107.11,106.77,106.83,9036
01/02/2018,10:55,106.86,106.92,106.79,106.79,22090
01/02/2018,11:00,106.8,106.84,106.6,106.78,18384
01/02/2018,11:05,106.79,106.84,106.75,106.76,10311
01/02/2018,11:10,106.79,106.79,106.63,106.73,9007
01/02/2018,11:15,106.72,106.74,106.5,106.5,13193
01/02/2018,11:20,106.5,106.54,106.4,106.43,31335
01/02/2018,11:25,106.44,106.51,106.42,106.44,17461
01/02/2018,11:30,106.43,106.47,106.27,106.31,15666
01/02/2018,11:35,106.31,106.5,106.29,106.5,13932
01/02/2018,11:40,106.49,106.52,106.44,106.45,11986
01/02/2018,11:45,106.45,106.67,106.44,106.67,13497
01/02/2018,11:50,106.68,106.77,106.64,106.76,25999
01/02/2018,11:55,106.76,106.76,106.58,106.64,8661
01/02/2018,12:00,106.63,106.65,106.57,106.65,9846
01/02/2018,12:05,106.64,106.71,106.6,106.7,7189
01/02/2018,12:10,106.72,106.72,106.52,106.52,7337
01/02/2018,12:15,106.53,106.72,106.5,106.7,18238
01/02/2018,12:20,106.72,106.81,106.61,106.81,8552
01/02/2018,12:25,106.82,106.82,106.67,106.76,8394
01/02/2018,12:30,106.78,106.8,106.68,106.76,5925
01/02/2018,12:35,106.75,106.85,106.72,106.85,5577
01/02/2018,12:40,106.88,106.88,106.76,106.77,8196
01/02/2018,12:45,106.79,106.83,106.75,106.79,3828
01/02/2018,12:50,106.79,106.8,106.71,106.76,6405
01/02/2018,12:55,106.77,106.82,106.75,106.82,7133
01/02/2018,13:00,106.82,106.94,106.8,106.94,4689
01/02/2018,13:05,106.92,106.96,106.85,106.9,17286
01/02/2018,13:10,106.92,106.92,106.78,106.82,16847
01/02/2018,13:15,106.8,106.8,106.72,106.76,15067
01/02/2018,13:20,106.77,106.77,106.69,106.7,7104
01/02/2018,13:25,106.71,106.73,106.67,106.72,10462
01/02/2018,13:30,106.72,106.89,106.71,106.89,9954
01/02/2018,13:35,106.88,106.96,106.86,106.94,7191
01/02/2018,13:40,106.93,107,106.92,107,6075
01/02/2018,13:45,107,107.03,106.96,106.97,7792
01/02/2018,13:50,106.98,107.07,106.97,107.04,5112
01/02/2018,13:55,107.05,107.09,107.03,107.07,10903
01/02/2018,14:00,107.06,107.15,107,107.13,38537
01/02/2018,14:05,107.14,107.2,107.13,107.2,17229
01/02/2018,14:10,107.19,107.2,107.02,107.14,27330
01/02/2018,14:15,107.15,107.2,107.13,107.2,12136
01/02/2018,14:20,107.2,107.25,107.17,107.17,15637
01/02/2018,14:25,107.17,107.24,107.13,107.23,11424
01/02/2018,14:30,107.24,107.36,107.24,107.28,26387
01/02/2018,14:35,107.28,107.33,107.26,107.32,7917
01/02/2018,14:40,107.33,107.41,107.33,107.38,16092
01/02/2018,14:45,107.36,107.42,107.31,107.34,10627
01/02/2018,14:50,107.33,107.36,107.22,107.28,10630
01/02/2018,14:55,107.28,107.3,107.21,107.24,9612
01/02/2018,15:00,107.22,107.26,107.18,107.24,13734
01/02/2018,15:05,107.25,107.3,107.22,107.29,12739
01/02/2018,15:10,107.28,107.35,107.23,107.34,12081
01/02/2018,15:15,107.34,107.35,107.28,107.33,19286
01/02/2018,15:20,107.33,107.33,107.25,107.29,21444
01/02/2018,15:25,107.3,107.32,107.19,107.2,26516
01/02/2018,15:30,107.2,107.2,107.11,107.13,37304
01/02/2018,15:35,107.13,107.27,107.12,107.27,42008
01/02/2018,15:40,107.28,107.34,107.25,107.32,41237
01/02/2018,15:45,107.33,107.39,107.3,107.39,59391
01/02/2018,15:50,107.39,107.42,107.37,107.41,51534
01/02/2018,15:55,107.41,107.41,107.23,107.32,128397
01/02/2018,16:00,107.33,107.33,107.33,107.33,230982
01/03/2018,06:05,107.87,107.96,107.87,107.96,382
01/03/2018,07:00,108.02,108.02,108.02,108.02,356
01/03/2018,08:00,107.87,107.87,107.87,107.87,407
01/03/2018,09:00,108.46,108.46,108.46,108.46,1018
01/03/2018,09:15,108.4,108.48,108.19,108.48,2363
01/03/2018,09:30,108.16,108.27,107.85,108.12,97708
01/03/2018,09:35,108.22,108.69,108.18,108.59,45253
01/03/2018,09:40,108.54,108.58,108.29,108.45,29827
01/03/2018,09:45,108.46,108.72,108.16,108.19,56174
01/03/2018,09:50,108.17,108.69,108.16,108.66,25306
01/03/2018,09:55,108.67,109.03,108.67,108.73,105668
01/03/2018,10:00,108.71,109.02,108.59,109.02,24282
01/03/2018,10:05,109,109.17,108.93,109.1,46879
01/03/2018,10:10,109.11,109.35,109.08,109.25,53008
01/03/2018,10:15,109.3,109.33,109.18,109.3,14610
01/03/2018,10:20,109.3,109.44,109.23,109.27,43403
01/03/2018,10:25,109.25,109.34,109.12,109.24,58617
01/03/2018,10:30,109.24,109.71,109.23,109.49,30009
01/03/2018,10:35,109.49,109.72,109.46,109.72,15923
01/03/2018,10:40,109.73,109.82,109.22,109.22,24585
01/03/2018,10:45,109.24,109.32,108.95,108.97,68632
01/03/2018,10:50,108.97,108.99,108.78,108.81,37251
01/03/2018,10:55,108.84,108.96,108.77,108.86,19286
01/03/2018,11:00,108.86,108.94,108.65,108.65,36068
01/03/2018,11:05,108.65,108.78,108.65,108.73,20715
01/03/2018,11:10,108.72,108.77,108.54,108.65,29957
01/03/2018,11:15,108.65,108.81,108.61,108.65,19134
01/03/2018,11:20,108.65,108.74,108.5,108.69,31954
01/03/2018,11:25,108.64,108.7,108.52,108.59,12726
01/03/2018,11:30,108.59,108.69,108.56,108.6,11187
01/03/2018,11:35,108.59,108.72,108.49,108.54,14735
01/03/2018,11:40,108.52,108.71,108.52,108.67,17842
01/03/2018,11:45,108.63,108.69,108.53,108.57,14128
01/03/2018,11:50,108.55,108.75,108.55,108.73,23189
01/03/2018,11:55,108.71,108.86,108.63,108.82,26772
01/03/2018,12:00,108.82,108.84,108.75,108.75,20415
01/03/2018,12:05,108.72,108.96,108.72,108.96,23950
01/03/2018,12:10,108.97,109.23,108.97,109.23,24256
01/03/2018,12:15,109.18,109.21,108.95,109.16,19593
01/03/2018,12:20,109.19,109.25,109.13,109.23,7529
01/03/2018,12:25,109.22,109.24,109.08,109.09,8545
01/03/2018,12:30,109.05,109.19,109.02,109.16,24555
01/03/2018,12:35,109.23,109.43,109.23,109.42,10971
01/03/2018,12:40,109.4,109.45,109.3,109.35,20116
01/03/2018,12:45,109.35,109.45,109.29,109.44,20031
01/03/2018,12:50,109.42,109.49,109.4,109.49,11167
01/03/2018,12:55,109.5,109.53,109.41,109.49,43837
01/03/2018,13:00,109.49,109.56,109.42,109.47,25879
01/03/2018,13:05,109.49,109.55,109.42,109.44,17242
01/03/2018,13:10,109.46,109.5,109.24,109.27,52459
01/03/2018,13:15,109.27,109.4,109.27,109.4,13774
01/03/2018,13:20,109.32,109.39,109.25,109.39,12242
01/03/2018,13:25,109.37,109.4,109.23,109.33,16679
01/03/2018,13:30,109.35,109.39,109.3,109.34,16702
01/03/2018,13:35,109.34,109.37,109.22,109.22,18182
01/03/2018,13:40,109.17,109.25,109.12,109.21,14474
01/03/2018,13:45,109.21,109.31,109.17,109.17,28537
01/03/2018,13:50,109.2,109.39,109.2,109.3,23957
01/03/2018,13:55,109.28,109.4,109.21,109.37,50801
01/03/2018,14:00,109.35,109.39,109.23,109.25,19663
01/03/2018,14:05,109.23,109.39,109.22,109.22,21290
01/03/2018,14:10,109.2,109.28,109.18,109.28,28796
01/03/2018,14:15,109.28,109.4,109.24,109.34,27175
01/03/2018,14:20,109.32,109.4,109.29,109.3,18024
01/03/2018,14:25,109.3,109.41,109.24,109.36,17662
01/03/2018,14:30,109.37,109.49,109.35,109.4,54866
01/03/2018,14:35,109.42,109.51,109.39,109.42,20040
01/03/2018,14:40,109.4,109.49,109.37,109.49,7053
01/03/2018,14:45,109.5,109.5,109.4,109.47,10115
01/03/2018,14:50,109.48,109.51,109.41,109.42,13963
01/03/2018,14:55,109.41,109.5,109.41,109.45,10509
01/03/2018,15:00,109.46,109.5,109.41,109.41,17117
01/03/2018,15:05,109.41,109.49,109.37,109.49,12465
01/03/2018,15:10,109.48,109.48,109.4,109.43,7269
01/03/2018,15:15,109.46,109.48,109.39,109.39,10460
01/03/2018,15:20,109.4,109.41,109.32,109.34,16676
01/03/2018,15:25,109.33,109.42,109.32,109.34,14633
01/03/2018,15:30,109.33,109.35,109.28,109.28,24651
01/03/2018,15:35,109.28,109.28,109.19,109.26,33418
01/03/2018,15:40,109.25,109.25,109,109.02,41146
01/03/2018,15:45,109.02,109.26,109.02,109.13,78124
01/03/2018,15:50,109.14,109.16,108.98,109.09,82615
01/03/2018,15:55,109.1,109.11,108.88,108.93,133338
01/03/2018,16:00,108.94,108.94,108.94,108.94,194413
01/04/2018,07:00,108.35,108.35,108.35,108.35,509
01/04/2018,08:00,108.14,108.14,108.13,108.13,509
01/04/2018,09:25,108.24,108.24,108.22,108.22,611
01/04/2018,09:30,108.4,108.84,108.08,108.44,73353
01/04/2018,09:35,108.5,108.57,108.26,108.33,64317
01/04/2018,09:40,108.26,108.48,108.23,108.24,29884
01/04/2018,09:45,108.17,108.2,107.78,108.2,40319
01/04/2018,09:50,108.2,108.6,108.16,108.6,8969
01/04/2018,09:55,108.61,108.76,108.45,108.62,19226
01/04/2018,10:00,108.67,108.67,108.45,108.45,12756
01/04/2018,10:05,108.47,108.71,108.4,108.62,13767
01/04/2018,10:10,108.61,108.61,108.44,108.55,10515
01/04/2018,10:15,108.58,108.77,108.58,108.73,15746
01/04/2018,10:20,108.73,108.73,108.43,108.56,15101
01/04/2018,10:25,108.54,108.85,108.48,108.83,7412
01/04/2018,10:30,108.84,109.07,108.82,109.03,56001
01/04/2018,10:35,109.03,109.11,108.93,108.93,13032
01/04/2018,10:40,108.95,109.03,108.88,108.88,11905
01/04/2018,10:45,108.86,108.9,108.74,108.75,11542
01/04/2018,10:50,108.79,108.95,108.68,108.68,23344
01/04/2018,10:55,108.64,108.83,108.54,108.54,10538
01/04/2018,11:00,108.52,108.57,108.36,108.51,14207
01/04/2018,11:05,108.51,108.63,108.28,108.45,187159
01/04/2018,11:10,108.5,108.51,108.4,108.4,18359
01/04/2018,11:15,108.39,108.52,108.33,108.47,28840
01/04/2018,11:20,108.47,108.93,108.46,108.93,27056
01/04/2018,11:25,108.95,108.96,108.68,108.72,42676
01/04/2018,11:30,108.75,108.91,108.61,108.81,22547
01/04/2018,11:35,108.79,109.04,108.78,109.02,9165
01/04/2018,11:40,108.99,109.01,108.87,108.95,17029
01/04/2018,11:45,108.95,109.16,108.93,109.16,12316
01/04/2018,11:50,109.16,109.21,109.11,109.15,8687
01/04/2018,11:55,109.17,109.17,108.95,108.99,10152
01/04/2018,12:00,108.97,109.11,108.9,109.11,11372
01/04/2018,12:05,109.1,109.14,109.06,109.07,3990
01/04/2018,12:10,109.07,109.08,108.95,108.98,6376
01/04/2018,12:15,108.99,109.03,108.92,108.93,8168
01/04/2018,12:20,108.97,108.98,108.87,108.88,3773
01/04/2018,12:25,108.88,108.98,108.87,108.93,7316
01/04/2018,12:30,108.94,109.1,108.94,108.96,7487
01/04/2018,12:35,108.97,108.97,108.86,108.93,15852
01/04/2018,12:40,108.88,108.96,108.86,108.9,7433
01/04/2018,12:45,108.89,108.91,108.79,108.81,8452
01/04/2018,12:50,108.81,108.81,108.68,108.68,9062
01/04/2018,12:55,108.72,108.85,108.72,108.85,6575
01/04/2018,13:00,108.87,108.87,108.7,108.75,9858
01/04/2018,13:05,108.77,108.79,108.67,108.68,10127
01/04/2018,13:10,108.66,108.71,108.57,108.68,5472
01/04/2018,13:15,108.7,108.76,108.66,108.67,5120
01/04/2018,13:20,108.69,108.7,108.6,108.61,7345
01/04/2018,13:25,108.61,108.72,108.59,108.69,14139
01/04/2018,13:30,108.71,108.78,108.69,108.74,20227
01/04/2018,13:35,108.7,108.75,108.66,108.67,9776
01/04/2018,13:40,108.66,108.66,108.52,108.6,13161
01/04/2018,13:45,108.59,108.6,108.4,108.45,10472
01/04/2018,13:50,108.44,108.44,108.38,108.41,12538
01/04/2018,13:55,108.39,108.48,108.38,108.48,14000
01/04/2018,14:00,108.47,108.53,108.44,108.53,10510
01/04/2018,14:05,108.52,108.52,108.36,108.39,8551
01/04/2018,14:10,108.4,108.45,108.4,108.44,10872
01/04/2018,14:15,108.43,108.55,108.43,108.54,12854
01/04/2018,14:20,108.54,108.57,108.46,108.53,16274
01/04/2018,14:25,108.54,108.56,108.47,108.48,16181
01/04/2018,14:30,108.49,108.6,108.43,108.56,12910
01/04/2018,14:35,108.56,108.83,108.56,108.81,15811
01/04/2018,14:40,108.81,108.83,108.76,108.8,13288
01/04/2018,14:45,108.78,108.85,108.75,108.83,15208
01/04/2018,14:50,108.83,108.84,108.77,108.79,13210
01/04/2018,14:55,108.79,108.89,108.75,108.86,17633
01/04/2018,15:00,108.88,108.94,108.86,108.9,28810
01/04/2018,15:05,108.9,108.92,108.87,108.88,17826
01/04/2018,15:10,108.89,108.98,108.87,108.94,16687
01/04/2018,15:15,108.95,109,108.95,108.96,21038
01/04/2018,15:20,108.98,109.01,108.91,108.94,22022
01/04/2018,15:25,108.95,109.04,108.89,109.04,21897
01/04/2018,15:30,109.04,109.06,108.94,108.95,25486
01/04/2018,15:35,108.95,109.12,108.95,109.09,32897
01/04/2018,15:40,109.09,109.12,109.02,109.04,30838
01/04/2018,15:45,109.03,109.05,108.94,108.97,32476
01/04/2018,15:50,108.98,108.98,108.82,108.85,46582
01/04/2018,15:55,108.85,108.95,108.81,108.94,112817
01/04/2018,16:00,108.95,108.95,108.95,108.95,211509
01/05/2018,09:30,108.67,108.67,108.33,108.45,43349
01/05/2018,09:35,108.5,108.58,108.14,108.33,18521
01/05/2018,09:40,108.32,108.9,108.31,108.84,15354
01/05/2018,09:45,108.89,109.35,108.84,109.11,37080
01/05/2018,09:50,109.07,109.36,108.95,109.14,38449
01/05/2018,09:55,109.12,109.2,108.96,109,9003
01/05/2018,10:00,108.97,109.04,108.83,108.95,12091
01/05/2018,10:05,108.94,109,108.81,108.97,13988
01/05/2018,10:10,108.9,108.97,108.78,108.92,18917
01/05/2018,10:15,108.91,108.94,108.68,108.88,31498
01/05/2018,10:20,108.87,108.95,108.75,108.84,32231
01/05/2018,10:25,108.81,109.12,108.76,109.12,12666
01/05/2018,10:30,109.09,109.35,109.05,109.26,22761
01/05/2018,10:35,109.23,109.32,109.22,109.23,23316
01/05/2018,10:40,109.22,109.41,109.22,109.41,16417
01/05/2018,10:45,109.39,109.45,109.28,109.3,38091
01/05/2018,10:50,109.32,109.32,109.14,109.16,17794
01/05/2018,10:55,109.2,109.28,109.12,109.18,7687
01/05/2018,11:00,109.13,109.14,109.02,109.1,9845
01/05/2018,11:05,109.11,109.17,108.98,109.04,8539
01/05/2018,11:10,109.02,109.12,108.98,109.04,11812
01/05/2018,11:15,109.04,109.05,108.92,108.92,13608
01/05/2018,11:20,108.92,108.95,108.83,108.87,13754
01/05/2018,11:25,108.89,109.04,108.88,108.95,11113
01/05/2018,11:30,108.93,109.03,108.85,109.01,9856
01/05/2018,11:35,109.03,109.28,109.01,109.21,11855
01/05/2018,11:40,109.22,109.22,108.99,109.07,19562
01/05/2018,11:45,109.09,109.09,108.95,109.09,15025
01/05/2018,11:50,109.08,109.54,109.08,109.52,39293
01/05/2018,11:55,109.53,109.79,109.53,109.7,24493
01/05/2018,12:00,109.69,109.72,109.6,109.65,14256
01/05/2018,12:05,109.71,109.74,109.49,109.71,30562
01/05/2018,12:10,109.72,109.75,109.57,109.58,7995
01/05/2018,12:15,109.56,109.65,109.51,109.56,6685
01/05/2018,12:20,109.54,109.61,109.5,109.59,10831
01/05/2018,12:25,109.58,109.64,109.52,109.58,6374
01/05/2018,12:30,109.59,109.59,109.53,109.56,6200
01/05/2018,12:35,109.55,109.57,109.46,109.48,14374
01/05/2018,12:40,109.51,109.51,109.45,109.45,12268
01/05/2018,12:45,109.44,109.5,109.42,109.49,9908
01/05/2018,12:50,109.52,109.55,109.49,109.52,11808
01/05/2018,12:55,109.52,109.52,109.49,109.51,10530
01/05/2018,13:00,109.51,109.62,109.51,109.62,7481
01/05/2018,13:05,109.62,109.64,109.54,109.55,21558
01/05/2018,13:10,109.56,109.61,109.54,109.59,23307
01/05/2018,13:15,109.58,109.65,109.58,109.65,6775
01/05/2018,13:20,109.65,109.74,109.59,109.74,10173
01/05/2018,13:25,109.72,109.74,109.66,109.73,10236
01/05/2018,13:30,109.71,109.73,109.69,109.72,10851
01/05/2018,13:35,109.73,109.78,109.69,109.7,14023
01/05/2018,13:40,109.71,109.89,109.71,109.86,20123
01/05/2018,13:45,109.86,109.89,109.8,109.8,19035
01/05/2018,13:50,109.8,109.85,109.76,109.76,32805
01/05/2018,13:55,109.78,109.78,109.74,109.77,7955
01/05/2018,14:00,109.77,109.92,109.75,109.91,16905
01/05/2018,14:05,109.93,109.95,109.85,109.88,17927
01/05/2018,14:10,109.89,109.96,109.83,109.96,10734
01/05/2018,14:15,109.98,110.04,109.94,110.01,28593
01/05/2018,14:20,110,110.01,109.92,109.95,9617
01/05/2018,14:25,109.98,110.12,109.97,110.12,20519
01/05/2018,14:30,110.1,110.14,109.95,110.12,34912
01/05/2018,14:35,110.16,110.17,110.11,110.13,26934
01/05/2018,14:40,110.11,110.12,110.03,110.05,7566
01/05/2018,14:45,110.04,110.12,110.03,110.12,8570
01/05/2018,14:50,110.11,110.12,110.01,110.03,11890
01/05/2018,14:55,110.02,110.07,109.99,110.05,13871
01/05/2018,15:00,110.04,110.04,109.93,109.96,11581
01/05/2018,15:05,109.95,110.02,109.94,109.99,14916
01/05/2018,15:10,109.99,110.04,109.96,110,39875
01/05/2018,15:15,110.01,110.01,109.92,109.92,14646
01/05/2018,15:20,109.92,109.96,109.91,109.96,9280
01/05/2018,15:25,109.97,110,109.93,110,11482
01/05/2018,15:30,109.99,110.21,109.99,110.17,32765
01/05/2018,15:35,110.17,110.28,110.15,110.24,27611
01/05/2018,15:40,110.25,110.25,110.08,110.09,23646
01/05/2018,15:45,110.09,110.18,110.07,110.14,53543
01/05/2018,15:50,110.14,110.17,110.1,110.15,52016
01/05/2018,15:55,110.14,110.2,110.11,110.14,168053
01/05/2018,16:00,110.15,110.15,110.15,110.15,259743
01/08/2018,09:25,110.68,110.68,110.68,110.68,911
01/08/2018,09:30,110.42,110.57,110.24,110.5,43672
01/08/2018,09:35,110.51,110.77,110.37,110.54,23513
01/08/2018,09:40,110.51,110.65,110.19,110.31,33493
01/08/2018,09:45,110.32,110.35,110.11,110.16,14289
01/08/2018,09:50,110.11,110.46,110.1,110.44,8562
01/08/2018,09:55,110.36,110.45,110.3,110.34,5156
01/08/2018,10:00,110.32,110.65,110.31,110.51,15063
01/08/2018,10:05,110.55,110.62,110.47,110.59,8195
01/08/2018,10:10,110.58,110.65,110.4,110.5,12864
01/08/2018,10:15,110.52,110.56,110.28,110.35,9902
01/08/2018,10:20,110.37,110.37,110.19,110.19,7805
01/08/2018,10:25,110.23,110.33,110.21,110.28,12809
01/08/2018,10:30,110.3,110.45,110.28,110.32,8127
01/08/2018,10:35,110.32,110.37,110.02,110.02,14825
01/08/2018,10:40,109.99,110.01,109.84,109.84,11141
01/08/2018,10:45,109.84,109.92,109.64,109.92,10821
01/08/2018,10:50,109.92,109.99,109.91,109.94,49848
01/08/2018,10:55,109.93,109.96,109.72,109.79,23552
01/08/2018,11:00,109.79,109.97,109.74,109.87,7108
01/08/2018,11:05,109.88,109.93,109.83,109.92,8313
01/08/2018,11:10,109.97,110.05,109.97,110.03,5386
01/08/2018,11:15,110.02,110.03,109.96,110,5613
01/08/2018,11:20,110.01,110.06,109.84,109.84,9936
01/08/2018,11:25,109.87,109.88,109.8,109.81,4972
01/08/2018,11:30,109.83,109.92,109.8,109.86,7102
01/08/2018,11:35,109.91,109.96,109.86,109.86,7383
01/08/2018,11:40,109.89,109.89,109.8,109.88,6365
01/08/2018,11:45,109.89,109.94,109.85,109.92,6144
01/08/2018,11:50,109.93,109.97,109.81,109.81,21559
01/08/2018,11:55,109.83,109.89,109.82,109.86,6209
01/08/2018,12:00,109.89,109.99,109.87,109.93,18246
01/08/2018,12:05,109.92,110.01,109.91,109.91,43944
01/08/2018,12:10,109.9,109.95,109.88,109.91,25122
01/08/2018,12:15,109.92,109.99,109.89,109.93,104715
01/08/2018,12:20,109.93,109.94,109.86,109.92,4377
01/08/2018,12:25,109.95,110.03,109.89,109.99,23088
01/08/2018,12:30,109.99,110.06,109.96,110.05,14128
01/08/2018,12:35,110.06,110.09,109.95,110,8935
01/08/2018,12:40,109.95,109.99,109.91,109.98,5140
01/08/2018,12:45,109.94,109.97,109.85,109.9,15548
01/08/2018,12:50,109.91,109.95,109.87,109.94,6891
01/08/2018,12:55,109.94,110.04,109.92,110.04,6664
01/08/2018,13:00,109.99,110.09,109.99,110.09,4946
01/08/2018,13:05,110.09,110.24,110.04,110.24,17787
01/08/2018,13:10,110.26,110.4,110.26,110.34,6997
01/08/2018,13:15,110.34,110.57,110.34,110.55,16679
01/08/2018,13:20,110.55,110.69,110.54,110.69,4529
01/08/2018,13:25,110.72,110.84,110.67,110.84,31831
01/08/2018,13:30,110.83,110.86,110.66,110.66,23665
01/08/2018,13:35,110.7,110.76,110.57,110.64,31706
01/08/2018,13:40,110.65,110.69,110.53,110.56,8987
01/08/2018,13:45,110.56,110.6,110.53,110.58,10597
01/08/2018,13:50,110.59,110.77,110.58,110.77,9431
01/08/2018,13:55,110.77,110.83,110.72,110.8,12418
01/08/2018,14:00,110.79,110.83,110.69,110.83,14246
01/08/2018,14:05,110.86,110.86,110.79,110.83,15419
01/08/2018,14:10,110.85,110.93,110.8,110.89,13657
01/08/2018,14:15,110.92,111,110.86,110.95,16511
01/08/2018,14:20,110.91,111.01,110.87,110.96,6453
01/08/2018,14:25,110.97,110.97,110.88,110.93,13501
01/08/2018,14:30,110.92,110.93,110.82,110.86,9879
01/08/2018,14:35,110.86,110.9,110.85,110.85,9489
01/08/2018,14:40,110.84,110.93,110.81,110.93,11076
01/08/2018,14:45,110.94,111.07,110.94,111.05,14123
01/08/2018,14:50,111.01,111.12,111,111.04,13221
01/08/2018,14:55,111.02,111.08,111,111.07,6996
01/08/2018,15:00,111.07,111.15,111.04,111.11,18214
01/08/2018,15:05,111.13,111.18,111.09,111.1,14574
01/08/2018,15:10,111.09,111.09,111,111,12948
01/08/2018,15:15,110.99,111.04,110.96,111.02,13752
01/08/2018,15:20,111.01,111.07,110.96,111.01,9771
01/08/2018,15:25,111.01,111.08,110.99,111.01,16635
01/08/2018,15:30,111.01,111.02,110.93,110.94,20161
01/08/2018,15:35,110.93,110.93,110.73,110.74,22870
01/08/2018,15:40,110.74,110.76,110.66,110.67,23532
01/08/2018,15:45,110.67,110.75,110.66,110.71,27072
01/08/2018,15:50,110.72,110.73,110.59,110.59,52651
01/08/2018,15:55,110.6,110.73,110.51,110.66,115937
01/08/2018,16:00,110.68,110.68,110.68,110.68,347521
01/09/2018,09:30,110.9,111.07,110.73,110.81,27513
01/09/2018,09:35,110.73,110.73,110.53,110.63,10854
01/09/2018,09:40,110.6,110.64,110.28,110.53,11654
01/09/2018,09:45,110.44,110.49,110.32,110.35,10504
01/09/2018,09:50,110.34,110.34,110.04,110.21,12514
01/09/2018,09:55,110.21,110.41,110.18,110.33,13953
01/09/2018,10:00,110.32,110.32,110.16,110.3,12673
01/09/2018,10:05,110.27,110.27,109.91,109.99,26376
01/09/2018,10:10,110.02,110.37,109.97,110.33,12293
01/09/2018,10:15,110.31,110.36,110.22,110.22,6740
01/09/2018,10:20,110.22,110.22,109.98,110,8835
01/09/2018,10:25,109.99,110.06,109.86,110,37064
01/09/2018,10:30,110.02,110.06,109.88,109.88,14413
01/09/2018,10:35,109.9,109.98,109.83,109.83,4531
01/09/2018,10:40,109.8,109.88,109.53,109.74,13500
01/09/2018,10:45,109.74,109.75,109.65,109.66,7245
01/09/2018,10:50,109.66,109.79,109.63,109.77,6275
01/09/2018,10:55,109.78,109.91,109.76,109.82,7156
01/09/2018,11:00,109.78,109.81,109.68,109.71,10525
01/09/2018,11:05,109.7,109.81,109.66,109.68,11936
01/09/2018,11:10,109.69,109.7,109.63,109.67,8181
01/09/2018,11:15,109.69,109.8,109.69,109.8,11971
01/09/2018,11:20,109.83,109.97,109.76,109.9,5773
01/09/2018,11:25,109.92,110.13,109.92,110.09,5438
01/09/2018,11:30,110.11,110.25,110.03,110.12,11661
01/09/2018,11:35,110.07,110.12,110.02,110.1,5648
01/09/2018,11:40,110.1,110.23,110.05,110.11,5416
01/09/2018,11:45,110.06,110.08,109.89,109.95,8001
01/09/2018,11:50,109.93,110.01,109.84,109.88,4696
01/09/2018,11:55,109.89,109.89,109.77,109.85,6122
01/09/2018,12:00,109.88,110,109.81,109.98,17098
01/09/2018,12:05,110.02,110.02,109.87,109.96,8171
01/09/2018,12:10,109.94,110.01,109.87,109.87,5335
01/09/2018,12:15,109.86,109.9,109.83,109.86,3717
01/09/2018,12:20,109.85,109.91,109.81,109.89,4117
01/09/2018,12:25,109.9,109.99,109.88,109.97,7309
01/09/2018,12:30,109.98,110.14,109.98,110.13,12503
01/09/2018,12:35,110.13,110.27,110.13,110.22,6656
01/09/2018,12:40,110.22,110.27,110.19,110.27,7903
01/09/2018,12:45,110.3,110.33,110.19,110.27,5765
01/09/2018,12:50,110.28,110.35,110.25,110.35,27437
01/09/2018,12:55,110.36,110.44,110.35,110.35,10004
01/09/2018,13:00,110.37,110.45,110.35,110.45,9476
01/09/2018,13:05,110.44,110.57,110.44,110.5,24333
01/09/2018,13:10,110.48,110.55,110.47,110.55,17998
01/09/2018,13:15,110.55,110.57,110.43,110.49,23922
01/09/2018,13:20,110.49,110.55,110.45,110.47,25127
01/09/2018,13:25,110.44,110.48,110.4,110.45,39185
01/09/2018,13:30,110.43,110.66,110.41,110.64,29412
01/09/2018,13:35,110.64,110.65,110.53,110.59,36660
01/09/2018,13:40,110.59,110.63,110.54,110.6,13475
01/09/2018,13:45,110.61,110.61,110.55,110.6,19517
01/09/2018,13:50,110.59,110.61,110.43,110.61,38728
01/09/2018,13:55,110.6,110.68,110.59,110.64,8825
01/09/2018,14:00,110.63,110.65,110.55,110.57,11671
01/09/2018,14:05,110.57,110.59,110.53,110.53,9897
01/09/2018,14:10,110.53,110.55,110.49,110.53,8656
01/09/2018,14:15,110.53,110.56,110.46,110.51,10669
01/09/2018,14:20,110.52,110.57,110.48,110.51,9911
01/09/2018,14:25,110.49,110.54,110.44,110.5,11088
01/09/2018,14:30,110.51,110.53,110.43,110.46,19252
01/09/2018,14:35,110.48,110.51,110.44,110.47,10129
01/09/2018,14:40,110.46,110.54,110.46,110.54,9349
01/09/2018,14:45,110.55,110.63,110.5,110.57,9399
01/09/2018,14:50,110.57,110.61,110.53,110.57,10951
01/09/2018,14:55,110.57,110.59,110.51,110.59,10235
01/09/2018,15:00,110.58,110.59,110.54,110.59,12279
01/09/2018,15:05,110.59,110.59,110.51,110.53,14478
01/09/2018,15:10,110.52,110.58,110.5,110.54,10723
01/09/2018,15:15,110.55,110.55,110.4,110.4,16511
01/09/2018,15:20,110.42,110.44,110.34,110.39,14414
01/09/2018,15:25,110.39,110.39,110.2,110.21,15196
01/09/2018,15:30,110.22,110.26,110.15,110.16,56929
01/09/2018,15:35,110.15,110.16,110.06,110.1,41205
01/09/2018,15:40,110.1,110.1,109.96,109.97,52989
01/09/2018,15:45,109.97,109.98,109.88,109.89,70896
01/09/2018,15:50,109.89,109.9,109.72,109.72,100850
01/09/2018,15:55,109.71,109.74,109.59,109.7,196762
01/09/2018,16:00,109.7,109.7,109.7,109.7,140724
01/09/2018,16:05,109.7,109.7,109.7,109.7,306
01/09/2018,18:05,110.38,110.38,110.38,110.38,102
01/09/2018,19:40,110.38,110.38,110.38,110.38,132
01/10/2018,09:30,109.93,110.51,109.93,110.35,65597
01/10/2018,09:35,110.38,110.64,110.19,110.2,42719
01/10/2018,09:40,110.22,111.23,110.22,111.15,42368
01/10/2018,09:45,111.16,111.33,111.12,111.22,79833
01/10/2018,09:50,111.21,111.33,111.06,111.1,36643
01/10/2018,09:55,111.03,111.03,110.68,110.84,35741
01/10/2018,10:00,110.84,111.21,110.69,111.2,123778
01/10/2018,10:05,111.21,111.25,111.12,111.18,53044
01/10/2018,10:10,111.17,111.2,111.1,111.11,41004
01/10/2018,10:15,111.09,111.2,111,111.09,29973
01/10/2018,10:20,111.09,111.09,110.78,110.92,53105
01/10/2018,10:25,110.9,110.9,110.71,110.79,81553
01/10/2018,10:30,110.76,110.76,110.35,110.5,48597
01/10/2018,10:35,110.52,110.96,110.48,110.89,40614
01/10/2018,10:40,110.9,111.02,110.53,110.53,34344
01/10/2018,10:45,110.54,110.66,110.38,110.46,16284
01/10/2018,10:50,110.47,110.55,110.34,110.55,13504
01/10/2018,10:55,110.52,110.62,110.41,110.56,17914
01/10/2018,11:00,110.53,110.84,110.53,110.67,31276
01/10/2018,11:05,110.67,110.76,110.49,110.73,14273
01/10/2018,11:10,110.74,110.89,110.67,110.78,12775
01/10/2018,11:15,110.77,110.94,110.76,110.93,21810
01/10/2018,11:20,110.92,111.03,110.89,110.94,30515
01/10/2018,11:25,110.97,111.1,110.91,111.03,22968
01/10/2018,11:30,111.03,111.05,110.89,110.95,21045
01/10/2018,11:35,110.96,111.08,110.93,111.08,6352
01/10/2018,11:40,111.04,111.05,110.91,111.04,12395
01/10/2018,11:45,111.05,111.08,110.96,111.01,14653
01/10/2018,11:50,111.01,111.16,110.97,111.12,19442
01/10/2018,11:55,111.1,111.11,110.98,111,11804
01/10/2018,12:00,110.98,111.03,110.92,111.02,13739
01/10/2018,12:05,111.01,111.06,111,111.06,17160
01/10/2018,12:10,111.04,111.22,111.03,111.21,20603
01/10/2018,12:15,111.18,111.35,111.18,111.32,13663
01/10/2018,12:20,111.3,111.33,111.15,111.23,14513
01/10/2018,12:25,111.23,111.29,111.15,111.16,13494
01/10/2018,12:30,111.19,111.22,111.02,111.02,7533
01/10/2018,12:35,111.01,111.14,110.95,111.14,12526
01/10/2018,12:40,111.14,111.18,111.02,111.04,14310
01/10/2018,12:45,111.04,111.18,111.04,111.18,13090
01/10/2018,12:50,111.2,111.24,111.07,111.22,46625
01/10/2018,12:55,111.22,111.26,111.07,111.12,11294
01/10/2018,13:00,111.1,111.13,111,111,7546
01/10/2018,13:05,111.03,111.11,111,111.07,10536
01/10/2018,13:10,111.07,111.1,111.04,111.08,8761
01/10/2018,13:15,111.05,111.12,111.05,111.11,5168
01/10/2018,13:20,111.11,111.24,111.1,111.24,14645
01/10/2018,13:25,111.23,111.36,111.21,111.35,24051
01/10/2018,13:30,111.35,111.43,111.3,111.34,17783
01/10/2018,13:35,111.34,111.47,111.34,111.44,17453
01/10/2018,13:40,111.43,111.46,111.28,111.36,20890
01/10/2018,13:45,111.39,111.56,111.39,111.5,18028
01/10/2018,13:50,111.52,111.61,111.44,111.56,24216
01/10/2018,13:55,111.56,111.6,111.54,111.6,7341
01/10/2018,14:00,111.61,111.7,111.61,111.69,25641
01/10/2018,14:05,111.7,111.7,111.5,111.5,15920
01/10/2018,14:10,111.5,111.51,111.37,111.45,11349
01/10/2018,14:15,111.45,111.49,111.35,111.35,17703
01/10/2018,14:20,111.36,111.47,111.34,111.45,18471
01/10/2018,14:25,111.46,111.53,111.43,111.5,14836
01/10/2018,14:30,111.49,111.49,111.34,111.49,13879
01/10/2018,14:35,111.48,111.5,111.32,111.32,18203
01/10/2018,14:40,111.28,111.35,111.21,111.23,14548
01/10/2018,14:45,111.22,111.28,111.2,111.27,33180
01/10/2018,14:50,111.26,111.27,111.21,111.26,14586
01/10/2018,14:55,111.27,111.27,111.04,111.04,14827
01/10/2018,15:00,111.04,111.07,111,111.02,25434
01/10/2018,15:05,111.03,111.09,110.97,111.04,27742
01/10/2018,15:10,111.04,111.04,110.93,110.95,29452
01/10/2018,15:15,110.95,111.04,110.83,110.85,174594
01/10/2018,15:20,110.84,110.84,110.53,110.59,51379
01/10/2018,15:25,110.57,110.57,110.45,110.49,41479
01/10/2018,15:30,110.48,110.6,110.46,110.47,34378
01/10/2018,15:35,110.47,110.52,110.44,110.46,38225
01/10/2018,15:40,110.45,110.49,110.33,110.34,67610
01/10/2018,15:45,110.34,110.36,110.14,110.17,87508
01/10/2018,15:50,110.17,110.21,110.03,110.03,106980
01/10/2018,15:55,110.03,110.03,109.85,109.98,289515
01/10/2018,16:00,110,110,110,110,1771035
01/10/2018,16:35,110.13,110.13,110.13,110.13,102
01/11/2018,08:00,111.22,111.22,110.14,110.14,2037
01/11/2018,09:30,110.76,110.79,110.44,110.7,50573
01/11/2018,09:35,110.74,111.68,110.69,111.56,30640
01/11/2018,09:40,111.65,112.28,111.6,112.15,59236
01/11/2018,09:45,112.15,112.41,112.07,112.41,76406
01/11/2018,09:50,112.37,112.79,112.3,112.71,53032
01/11/2018,09:55,112.69,112.75,111.88,111.91,67126
01/11/2018,10:00,111.9,112.34,111.86,112.32,52694
01/11/2018,10:05,112.3,112.35,112.01,112.02,41562
01/11/2018,10:10,111.99,112.08,111.83,111.87,23725
01/11/2018,10:15,111.85,112.26,111.79,112.2,25800
01/11/2018,10:20,112.21,112.32,111.97,112.08,65749
01/11/2018,10:25,112.02,112.15,111.87,112.15,18919
01/11/2018,10:30,112.17,112.39,112.11,112.12,55621
01/11/2018,10:35,112.12,112.32,111.98,112.31,19730
01/11/2018,10:40,112.31,112.57,112.26,112.49,18637
01/11/2018,10:45,112.48,112.7,112.4,112.5,39981
01/11/2018,10:50,112.47,112.58,112.43,112.52,29112
01/11/2018,10:55,112.49,112.69,112.49,112.56,56459
01/11/2018,11:00,112.59,112.68,112.19,112.22,31838
01/11/2018,11:05,112.22,112.34,112.08,112.19,25843
01/11/2018,11:10,112.18,112.26,112.03,112.26,28979
01/11/2018,11:15,112.26,112.41,112.24,112.34,30896
01/11/2018,11:20,112.33,112.52,112.23,112.51,37684
01/11/2018,11:25,112.51,112.63,112.46,112.55,33042
01/11/2018,11:30,112.55,112.84,112.41,112.53,73048
01/11/2018,11:35,112.55,112.97,112.53,112.96,42508
01/11/2018,11:40,112.97,112.99,112.77,112.85,30382
01/11/2018,11:45,112.85,112.99,112.74,112.96,31954
01/11/2018,11:50,112.96,113.13,112.92,113.07,25929
01/11/2018,11:55,113.08,113.09,112.89,113.06,25541
01/11/2018,12:00,113.06,113.15,112.93,112.93,32886
01/11/2018,12:05,112.94,112.97,112.84,112.9,24837
01/11/2018,12:10,112.91,113.05,112.89,113.05,17153
01/11/2018,12:15,113.06,113.06,112.93,112.95,13388
01/11/2018,12:20,112.94,113.04,112.9,112.93,22364
01/11/2018,12:25,112.94,113.06,112.94,113.06,9754
01/11/2018,12:30,113.07,113.11,112.94,113.01,17292
01/11/2018,12:35,112.99,113.2,112.98,113.18,18700
01/11/2018,12:40,113.15,113.17,113.05,113.05,14367
01/11/2018,12:45,113.03,113.13,112.98,112.98,9546
01/11/2018,12:50,113,113.02,112.86,112.94,24845
01/11/2018,12:55,112.93,113.15,112.93,113.11,12332
01/11/2018,13:00,113.14,113.18,112.95,112.95,15516
01/11/2018,13:05,112.97,113.07,112.92,113.07,22526
01/11/2018,13:10,113.08,113.13,113.01,113.07,19552
01/11/2018,13:15,113.07,113.1,112.95,113.08,19701
01/11/2018,13:20,113.11,113.32,113.11,113.28,19413
01/11/2018,13:25,113.31,113.43,113.31,113.39,16332
01/11/2018,13:30,113.39,113.41,113.29,113.31,19615
01/11/2018,13:35,113.29,113.33,113.25,113.33,12955
01/11/2018,13:40,113.34,113.35,113.27,113.32,9586
01/11/2018,13:45,113.32,113.45,113.31,113.43,13407
01/11/2018,13:50,113.43,113.44,113.33,113.35,13579
01/11/2018,13:55,113.36,113.42,113.28,113.41,43090
01/11/2018,14:00,113.42,113.43,113.29,113.32,43484
01/11/2018,14:05,113.32,113.41,113.2,113.26,85793
01/11/2018,14:10,113.27,113.31,113.21,113.22,44639
01/11/2018,14:15,113.22,113.31,113.19,113.29,57904
01/11/2018,14:20,113.29,113.32,113.19,113.22,27975
01/11/2018,14:25,113.19,113.42,113.12,113.37,55934
01/11/2018,14:30,113.37,113.5,113.29,113.29,42757
01/11/2018,14:35,113.28,113.32,113.24,113.32,27102
01/11/2018,14:40,113.32,113.33,113.21,113.24,19223
01/11/2018,14:45,113.25,113.48,113.22,113.48,36214
01/11/2018,14:50,113.5,113.64,113.47,113.53,39726
01/11/2018,14:55,113.54,113.61,113.51,113.52,28738
01/11/2018,15:00,113.5,113.61,113.47,113.51,73893
01/11/2018,15:05,113.52,113.52,113.26,113.28,53539
01/11/2018,15:10,113.28,113.3,113.05,113.07,58081
01/11/2018,15:15,113.07,113.13,112.97,113.1,36592
01/11/2018,15:20,113.09,113.21,113.03,113.2,29102
01/11/2018,15:25,113.2,113.21,113.15,113.16,38639
01/11/2018,15:30,113.15,113.19,113.07,113.19,61612
01/11/2018,15:35,113.2,113.42,113.2,113.28,88546
01/11/2018,15:40,113.28,113.3,113.07,113.15,36274
01/11/2018,15:45,113.15,113.21,113.11,113.16,88440
01/11/2018,15:50,113.17,113.21,113.07,113.07,98871
01/11/2018,15:55,113.07,113.12,112.91,113.08,200600
01/11/2018,16:00,113.07,113.07,113.07,113.07,308605
01/11/2018,16:10,113.07,113.07,113.07,113.07,62219
01/12/2018,09:25,112.44,112.44,112.44,112.44,119
01/12/2018,09:30,112.88,113.62,112.73,113.32,56536
01/12/2018,09:35,113.31,114.03,113.21,114.01,58438
01/12/2018,09:40,114.05,114.33,113.86,114.12,40154
01/12/2018,09:45,114.16,114.38,114.1,114.28,25530
01/12/2018,09:50,114.29,114.37,114.06,114.06,16314
01/12/2018,09:55,114.07,114.28,113.9,114.22,55848
01/12/2018,10:00,114.22,114.23,113.92,113.98,10763
01/12/2018,10:05,114.01,114.04,113.74,113.98,30955
01/12/2018,10:10,113.99,114.16,113.94,114.12,20790
01/12/2018,10:15,114.14,114.14,113.78,113.89,22838
01/12/2018,10:20,113.9,113.98,113.74,113.95,14388
01/12/2018,10:25,113.95,113.95,113.78,113.78,13809
01/12/2018,10:30,113.78,113.84,113.2,113.2,23680
01/12/2018,10:35,113.24,113.51,113.23,113.32,58794
01/12/2018,10:40,113.25,113.41,113.13,113.41,23800
01/12/2018,10:45,113.42,113.54,113.26,113.28,14234
01/12/2018,10:50,113.29,113.43,113.29,113.31,21243
01/12/2018,10:55,113.32,113.5,113.26,113.5,14053
01/12/2018,11:00,113.47,113.55,113.38,113.51,10690
01/12/2018,11:05,113.52,113.53,113.38,113.41,10880
01/12/2018,11:10,113.37,113.39,113.11,113.15,6642
01/12/2018,11:15,113.14,113.18,112.85,112.96,25865
01/12/2018,11:20,113.02,113.41,112.98,113.41,17853
01/12/2018,11:25,113.42,113.72,113.4,113.55,24087
01/12/2018,11:30,113.55,113.62,113.43,113.56,8347
01/12/2018,11:35,113.51,113.68,113.51,113.64,5854
01/12/2018,11:40,113.63,113.63,113.43,113.58,8221
01/12/2018,11:45,113.64,113.64,113.5,113.59,12124
01/12/2018,11:50,113.58,113.62,113.51,113.56,9939
01/12/2018,11:55,113.58,113.63,113.5,113.61,11383
01/12/2018,12:00,113.65,113.76,113.63,113.65,19689
01/12/2018,12:05,113.62,113.74,113.52,113.73,32189
01/12/2018,12:10,113.71,113.86,113.67,113.86,9834
01/12/2018,12:15,113.84,113.95,113.74,113.79,21418
01/12/2018,12:20,113.81,113.86,113.72,113.74,5599
01/12/2018,12:25,113.7,113.74,113.67,113.74,5230
01/12/2018,12:30,113.7,113.71,113.63,113.63,10651
01/12/2018,12:35,113.6,113.78,113.6,113.75,6129
01/12/2018,12:40,113.74,113.85,113.67,113.71,21219
01/12/2018,12:45,113.71,113.86,113.71,113.86,9470
01/12/2018,12:50,113.85,113.87,113.76,113.77,10456
01/12/2018,12:55,113.78,113.8,113.7,113.71,4657
01/12/2018,13:00,113.71,113.74,113.69,113.7,6814
01/12/2018,13:05,113.7,113.76,113.68,113.73,15353
01/12/2018,13:10,113.74,113.88,113.72,113.87,10778
01/12/2018,13:15,113.87,113.87,113.73,113.79,7640
01/12/2018,13:20,113.81,113.86,113.72,113.8,3759
01/12/2018,13:25,113.82,113.85,113.76,113.81,3981
01/12/2018,13:30,113.82,113.93,113.78,113.93,10654
01/12/2018,13:35,113.92,113.92,113.77,113.81,11247
01/12/2018,13:40,113.82,113.86,113.77,113.8,16489
01/12/2018,13:45,113.8,113.89,113.79,113.88,8698
01/12/2018,13:50,113.89,113.9,113.79,113.81,11089
01/12/2018,13:55,113.82,114,113.79,114,14504
01/12/2018,14:00,113.98,114.02,113.83,113.91,8486
01/12/2018,14:05,113.93,114,113.85,113.87,11589
01/12/2018,14:10,113.88,114,113.87,113.92,10055
01/12/2018,14:15,113.9,113.93,113.8,113.82,11224
01/12/2018,14:20,113.84,113.91,113.78,113.86,15175
01/12/2018,14:25,113.86,113.94,113.86,113.87,8693
01/12/2018,14:30,113.84,113.85,113.76,113.78,11224
01/12/2018,14:35,113.78,113.84,113.76,113.82,13719
01/12/2018,14:40,113.79,113.79,113.68,113.71,7321
01/12/2018,14:45,113.69,113.81,113.68,113.75,20970
01/12/2018,14:50,113.76,113.77,113.57,113.62,29179
01/12/2018,14:55,113.6,113.7,113.56,113.61,16750
01/12/2018,15:00,113.6,113.7,113.59,113.64,13671
01/12/2018,15:05,113.64,113.64,113.54,113.59,10319
01/12/2018,15:10,113.58,113.6,113.47,113.5,9776
01/12/2018,15:15,113.51,113.58,113.46,113.52,14537
01/12/2018,15:20,113.53,113.78,113.53,113.78,12245
01/12/2018,15:25,113.77,113.79,113.59,113.59,19535
01/12/2018,15:30,113.58,113.58,113.41,113.51,36731
01/12/2018,15:35,113.52,113.58,113.49,113.57,24291
01/12/2018,15:40,113.57,113.58,113.25,113.41,49455
01/12/2018,15:45,113.42,113.66,113.4,113.64,49329
01/12/2018,15:50,113.65,113.74,113.46,113.51,52674
01/12/2018,15:55,113.51,113.67,113.41,113.62,91904
01/12/2018,16:00,113.62,113.62,113.61,113.61,225307
01/16/2018,09:30,113.9,114.22,112.78,113.17,78719
01/16/2018,09:35,113.01,113.22,112.64,113.13,34361
01/16/2018,09:40,113.09,113.49,112.9,113.12,33468
01/16/2018,09:45,113.12,113.31,112.89,113.23,26580
01/16/2018,09:50,113.19,113.42,113.02,113.14,30060
01/16/2018,09:55,113.17,113.57,113.13,113.57,52112
01/16/2018,10:00,113.49,113.49,113.25,113.25,14534
01/16/2018,10:05,113.27,113.53,113.23,113.38,35748
01/16/2018,10:10,113.42,113.64,113.37,113.61,14339
01/16/2018,10:15,113.63,113.77,113.55,113.75,17822
01/16/2018,10:20,113.75,114.28,113.74,114.28,31514
01/16/2018,10:25,114.29,114.47,114.22,114.41,27221
01/16/2018,10:30,114.39,114.44,114.13,114.13,24452
01/16/2018,10:35,114.13,114.5,113.96,114.45,62172
01/16/2018,10:40,114.44,114.51,114.34,114.37,26720
01/16/2018,10:45,114.41,114.42,114.17,114.28,31314
01/16/2018,10:50,114.27,114.29,114.03,114.18,56212
01/16/2018,10:55,114.14,114.2,113.74,113.74,96636
01/16/2018,11:00,113.78,113.83,113.49,113.65,26294
01/16/2018,11:05,113.66,113.79,113.52,113.67,24673
01/16/2018,11:10,113.65,113.77,113.49,113.7,28342
01/16/2018,11:15,113.7,113.7,113.49,113.59,23494
01/16/2018,11:20,113.57,113.57,113.4,113.44,15990
01/16/2018,11:25,113.42,113.44,113.17,113.17,23211
01/16/2018,11:30,113.17,113.17,113.07,113.1,29183
01/16/2018,11:35,113.1,113.25,113.1,113.15,20297
01/16/2018,11:40,113.15,113.37,113.12,113.33,26223
01/16/2018,11:45,113.3,113.34,113.11,113.2,34568
01/16/2018,11:50,113.21,113.24,113.06,113.06,15081
01/16/2018,11:55,113.09,113.15,112.96,112.98,14495
01/16/2018,12:00,112.98,112.98,112.58,112.9,34400
01/16/2018,12:05,112.87,112.91,112.72,112.85,20920
01/16/2018,12:10,112.86,113.08,112.84,113.04,38355
01/16/2018,12:15,113.04,113.19,112.9,112.98,49130
01/16/2018,12:20,112.98,113.24,112.93,113.24,40745
01/16/2018,12:25,112.93,113.01,112.83,112.91,17503
01/16/2018,12:30,112.91,112.98,112.72,112.74,23910
01/16/2018,12:35,112.73,112.82,112.6,112.73,10428
01/16/2018,12:40,112.77,112.8,112.6,112.8,34171
01/16/2018,12:45,112.83,112.91,112.82,112.88,12386
01/16/2018,12:50,112.89,113.02,112.89,113.02,13464
01/16/2018,12:55,113.01,113.04,112.8,112.83,16369
01/16/2018,13:00,112.79,112.79,112.57,112.71,15287
01/16/2018,13:05,112.71,112.71,112.52,112.59,17512
01/16/2018,13:10,112.6,112.65,112.54,112.59,10993
01/16/2018,13:15,112.58,112.69,112.58,112.66,13698
01/16/2018,13:20,112.66,112.79,112.66,112.71,13485
01/16/2018,13:25,112.72,112.79,112.63,112.73,5702
01/16/2018,13:30,112.7,112.73,112.64,112.64,11410
01/16/2018,13:35,112.66,112.68,112.62,112.67,10573
01/16/2018,13:40,112.68,112.68,112.57,112.58,10198
01/16/2018,13:45,112.56,113.1,112.55,112.7,81150
01/16/2018,13:50,112.67,112.74,112.59,112.65,19602
01/16/2018,13:55,112.64,112.69,112.58,112.63,20076
01/16/2018,14:00,112.64,112.64,112.41,112.41,23192
01/16/2018,14:05,112.41,112.42,112.31,112.39,29610
01/16/2018,14:10,112.37,112.49,112.36,112.42,19136
01/16/2018,14:15,112.43,112.47,111.95,112.04,60618
01/16/2018,14:20,112.06,112.16,111.9,111.91,21418
01/16/2018,14:25,111.92,112.04,111.8,112.03,20497
01/16/2018,14:30,112.06,112.09,111.9,111.95,40811
01/16/2018,14:35,111.91,111.98,111.89,111.92,19680
01/16/2018,14:40,111.96,112.03,111.63,111.63,29769
01/16/2018,14:45,111.61,111.67,111.49,111.66,41972
01/16/2018,14:50,111.68,111.73,111.54,111.61,19612
01/16/2018,14:55,111.63,111.81,111.63,111.79,23252
01/16/2018,15:00,111.81,111.91,111.8,111.86,38510
01/16/2018,15:05,111.84,111.92,111.76,111.8,41267
01/16/2018,15:10,111.8,111.88,111.72,111.82,37593
01/16/2018,15:15,111.83,111.98,111.79,111.95,23673
01/16/2018,15:20,111.95,112.04,111.61,111.63,32850
01/16/2018,15:25,111.64,111.7,111.44,111.69,38043
01/16/2018,15:30,111.68,111.76,111.52,111.67,64879
01/16/2018,15:35,111.68,111.83,111.67,111.75,34849
01/16/2018,15:40,111.76,111.77,111.62,111.71,50370
01/16/2018,15:45,111.71,111.91,111.67,111.91,77690
01/16/2018,15:50,111.91,111.96,111.7,111.71,144869
01/16/2018,15:55,111.71,111.71,111.21,111.43,451443
01/16/2018,16:00,111.72,112.95,111.51,112.95,1532478
01/17/2018,05:35,110.15,110.15,110.15,110.15,102
01/17/2018,06:45,110.13,110.13,110.13,110.13,203
01/17/2018,09:30,111.83,111.98,111.14,111.57,25336
01/17/2018,09:35,111.45,112.04,111.32,111.56,24930
01/17/2018,09:40,111.66,111.72,111.48,111.55,28865
01/17/2018,09:45,111.54,111.54,111.04,111.05,34170
01/17/2018,09:50,111.11,111.11,110.7,110.95,30936
01/17/2018,09:55,110.87,110.96,110.33,110.33,23534
01/17/2018,10:00,110.28,110.87,110.28,110.87,26085
01/17/2018,10:05,110.91,110.98,110.48,110.49,15431
01/17/2018,10:10,110.51,110.84,110.43,110.84,38233
01/17/2018,10:15,110.85,111.1,110.84,110.88,27768
01/17/2018,10:20,110.86,110.87,110.66,110.72,10935
01/17/2018,10:25,110.75,110.82,110.64,110.68,8317
01/17/2018,10:30,110.71,111.09,110.61,111.02,10199
01/17/2018,10:35,111.02,111.2,110.92,110.94,54776
01/17/2018,10:40,110.97,111.08,110.72,110.72,5265
01/17/2018,10:45,110.78,110.88,110.76,110.86,9292
01/17/2018,10:50,110.8,111.03,110.79,110.84,9845
01/17/2018,10:55,110.81,111.07,110.69,110.96,19505
01/17/2018,11:00,110.97,111.01,110.85,110.96,5823
01/17/2018,11:05,110.92,111.39,110.92,111.39,13253
01/17/2018,11:10,111.42,111.51,111.39,111.45,10777
01/17/2018,11:15,111.41,111.48,111.3,111.33,8925
01/17/2018,11:20,111.31,111.34,111.14,111.33,19494
01/17/2018,11:25,111.35,111.38,111.27,111.35,9152
01/17/2018,11:30,111.38,111.45,111.32,111.36,5576
01/17/2018,11:35,111.39,111.43,111.28,111.28,6100
01/17/2018,11:40,111.3,111.7,111.27,111.65,13713
01/17/2018,11:45,111.65,111.81,111.53,111.8,10283
01/17/2018,11:50,111.79,111.88,111.6,111.6,13859
01/17/2018,11:55,111.63,111.7,111.61,111.64,6896
01/17/2018,12:00,111.64,111.69,111.45,111.45,5774
01/17/2018,12:05,111.42,111.5,111.41,111.44,7539
01/17/2018,12:10,111.45,111.46,111.26,111.26,5855
01/17/2018,12:15,111.26,111.45,111.26,111.4,7245
01/17/2018,12:20,111.4,111.56,111.4,111.51,7931
01/17/2018,12:25,111.53,111.7,111.51,111.67,8940
01/17/2018,12:30,111.67,111.7,111.49,111.49,5568
01/17/2018,12:35,111.48,111.73,111.34,111.6,18031
01/17/2018,12:40,111.57,111.68,111.55,111.68,22518
01/17/2018,12:45,111.7,111.73,111.64,111.67,11990
01/17/2018,12:50,111.65,111.67,111.57,111.66,5547
01/17/2018,12:55,111.66,111.79,111.66,111.72,5037
01/17/2018,13:00,111.78,111.82,111.65,111.65,7389
01/17/2018,13:05,111.69,111.71,111.64,111.68,10259
01/17/2018,13:10,111.71,111.72,111.63,111.66,4208
01/17/2018,13:15,111.68,111.73,111.64,111.67,7592
01/17/2018,13:20,111.68,111.85,111.67,111.79,30474
01/17/2018,13:25,111.78,111.85,111.75,111.83,18434
01/17/2018,13:30,111.82,111.96,111.81,111.9,9861
01/17/2018,13:35,111.91,111.91,111.83,111.85,6325
01/17/2018,13:40,111.89,111.95,111.82,111.87,10843
01/17/2018,13:45,111.89,111.9,111.85,111.85,4306
01/17/2018,13:50,111.85,111.88,111.73,111.84,19961
01/17/2018,13:55,111.85,111.88,111.82,111.85,8046
01/17/2018,14:00,111.83,111.91,111.77,111.85,16884
01/17/2018,14:05,111.88,112.11,111.88,112.11,11481
01/17/2018,14:10,112.11,112.22,112.1,112.13,31459
01/17/2018,14:15,112.15,112.29,112.12,112.17,36422
01/17/2018,14:20,112.15,112.33,112.15,112.3,46164
01/17/2018,14:25,112.28,112.28,112.07,112.09,29108
01/17/2018,14:30,112.02,112.11,112,112.07,10531
01/17/2018,14:35,112.11,112.16,112.08,112.1,22136
01/17/2018,14:40,112.07,112.17,112.06,112.14,33935
01/17/2018,14:45,112.15,112.31,112.15,112.3,20974
01/17/2018,14:50,112.32,112.4,112.32,112.38,9073
01/17/2018,14:55,112.42,112.46,112.23,112.23,13801
01/17/2018,15:00,112.26,112.29,112.16,112.24,7799
01/17/2018,15:05,112.22,112.29,112.2,112.21,14245
01/17/2018,15:10,112.2,112.22,111.97,111.97,8159
01/17/2018,15:15,111.97,112.04,111.8,111.8,18874
01/17/2018,15:20,111.85,111.88,111.65,111.67,15559
01/17/2018,15:25,111.67,111.82,111.63,111.73,21711
01/17/2018,15:30,111.73,111.76,111.63,111.65,23224
01/17/2018,15:35,111.66,111.78,111.66,111.75,18698
01/17/2018,15:40,111.75,111.94,111.75,111.85,22796
01/17/2018,15:45,111.86,111.95,111.77,111.95,34256
01/17/2018,15:50,111.95,111.96,111.73,111.75,64940
01/17/2018,15:55,111.74,111.75,111.53,111.66,206482
01/17/2018,16:00,111.65,111.65,111.65,111.65,1398986
01/17/2018,16:15,111.51,111.51,111.51,111.51,345
01/17/2018,19:40,111.87,111.87,111.87,111.87,102
01/18/2018,09:30,111.48,111.58,110.95,111.08,45785
01/18/2018,09:35,111.05,111.84,111.04,111.78,9263
01/18/2018,09:40,111.77,111.89,111.5,111.5,10763
01/18/2018,09:45,111.58,112.18,111.5,112.12,44660
01/18/2018,09:50,112.07,112.3,111.96,112.18,12032
01/18/2018,09:55,112.17,112.34,112.08,112.18,17633
01/18/2018,10:00,112.24,112.31,112.03,112.12,12654
01/18/2018,10:05,112.17,112.32,112.08,112.28,20022
01/18/2018,10:10,112.32,112.4,112.04,112.04,20082
01/18/2018,10:15,112.07,112.07,111.9,111.93,16461
01/18/2018,10:20,111.97,112.01,111.89,111.97,10399
01/18/2018,10:25,111.94,112.11,111.89,112.07,13363
01/18/2018,10:30,112.07,112.1,111.96,111.98,15806
01/18/2018,10:35,111.97,112.18,111.9,112.18,60088
01/18/2018,10:40,112.18,112.18,111.98,112.05,17903
01/18/2018,10:45,112.05,112.09,112.01,112.07,6403
01/18/2018,10:50,112.05,112.17,111.96,111.96,26572
01/18/2018,10:55,111.96,111.96,111.66,111.68,14339
01/18/2018,11:00,111.65,112.28,111.63,112.28,23190
01/18/2018,11:05,112.28,112.35,112.09,112.29,6799
01/18/2018,11:10,112.29,112.56,112.28,112.5,13097
01/18/2018,11:15,112.49,112.81,112.49,112.74,13806
01/18/2018,11:20,112.79,112.89,112.53,112.53,9357
01/18/2018,11:25,112.57,112.66,112.56,112.61,6569
01/18/2018,11:30,112.65,112.96,112.61,112.96,18963
01/18/2018,11:35,112.95,112.95,112.58,112.59,14317
01/18/2018,11:40,112.58,112.58,112.45,112.45,8072
01/18/2018,11:45,112.48,112.62,112.4,112.62,9076
01/18/2018,11:50,112.63,112.88,112.6,112.86,11787
01/18/2018,11:55,112.88,113.05,112.78,112.97,37143
01/18/2018,12:00,112.9,113.06,112.82,113.06,11189
01/18/2018,12:05,113.07,113.25,113.04,113.04,14107
01/18/2018,12:10,112.99,113.11,112.98,113.1,11597
01/18/2018,12:15,113.11,113.2,113.02,113.07,12505
01/18/2018,12:20,113.1,113.13,113.04,113.1,12501
01/18/2018,12:25,113.06,113.14,112.99,113.12,36460
01/18/2018,12:30,113.11,113.13,112.98,113.02,14751
01/18/2018,12:35,112.98,113.09,112.98,113.05,12218
01/18/2018,12:40,113.08,113.1,112.93,112.97,15355
01/18/2018,12:45,112.98,113.08,112.93,113.08,8637
01/18/2018,12:50,113.08,113.08,112.87,112.89,10387
01/18/2018,12:55,112.9,113.02,112.86,113,7943
01/18/2018,13:00,113.02,113.08,112.94,113.05,16903
01/18/2018,13:05,113.08,113.17,113.05,113.15,10780
01/18/2018,13:10,113.16,113.16,113.08,113.13,18529
01/18/2018,13:15,113.13,113.15,113.06,113.09,15317
01/18/2018,13:20,113.09,113.11,112.95,112.96,13661
01/18/2018,13:25,112.96,112.96,112.85,112.87,14407
01/18/2018,13:30,112.87,112.89,112.79,112.8,14624
01/18/2018,13:35,112.78,112.82,112.71,112.75,14272
01/18/2018,13:40,112.75,112.85,112.75,112.84,10170
01/18/2018,13:45,112.85,112.91,112.81,112.87,11325
01/18/2018,13:50,112.87,112.91,112.82,112.9,11497
01/18/2018,13:55,112.9,113.03,112.87,113.02,15026
01/18/2018,14:00,112.99,113.17,112.98,113.07,20446
01/18/2018,14:05,113.03,113.06,112.98,113.05,14535
01/18/2018,14:10,113.05,113.17,113.04,113.13,20816
01/18/2018,14:15,113.14,113.14,112.97,112.97,12557
01/18/2018,14:20,112.98,113.08,112.95,113,17219
01/18/2018,14:25,112.99,113.13,112.96,113.11,13941
01/18/2018,14:30,113.12,113.15,113.03,113.08,13623
01/18/2018,14:35,113.07,113.09,112.99,112.99,16459
01/18/2018,14:40,113,113.05,112.96,112.98,14509
01/18/2018,14:45,112.98,112.98,112.75,112.78,30465
01/18/2018,14:50,112.77,112.87,112.69,112.76,49448
01/18/2018,14:55,112.75,112.75,112.64,112.74,14915
01/18/2018,15:00,112.72,112.74,112.59,112.71,22303
01/18/2018,15:05,112.71,112.87,112.71,112.84,46700
01/18/2018,15:10,112.84,112.87,112.72,112.79,45531
01/18/2018,15:15,112.77,112.93,112.77,112.91,46907
01/18/2018,15:20,112.92,112.95,112.87,112.89,23797
01/18/2018,15:25,112.9,112.93,112.73,112.74,23011
01/18/2018,15:30,112.74,112.74,112.41,112.58,75007
01/18/2018,15:35,112.56,112.64,112.53,112.58,45234
01/18/2018,15:40,112.58,112.59,112.38,112.41,49112
01/18/2018,15:45,112.42,112.58,112.41,112.53,57816
01/18/2018,15:50,112.54,112.62,112.53,112.54,86273
01/18/2018,15:55,112.55,112.6,112.38,112.42,226638
01/18/2018,16:00,112.89,112.89,112.35,112.35,2294270
01/18/2018,16:20,112.35,112.35,112.35,112.35,258
01/18/2018,17:20,112.35,112.35,112.35,112.35,14535
01/19/2018,08:30,111.84,111.84,111.84,111.84,158
01/19/2018,09:30,112.06,112.3,111.59,112.23,303866
01/19/2018,09:35,112.17,112.49,111.78,112.49,26583
01/19/2018,09:40,112.53,112.86,112.45,112.59,19815
01/19/2018,09:45,112.55,112.8,112.1,112.17,41315
01/19/2018,09:50,112.22,112.27,111.83,111.91,19369
01/19/2018,09:55,111.91,112.18,111.91,111.98,18777
01/19/2018,10:00,112.07,112.27,112.06,112.11,11902
01/19/2018,10:05,112.17,112.23,112.03,112.09,18648
01/19/2018,10:10,112.1,112.34,112.07,112.07,13004
01/19/2018,10:15,112.08,112.14,111.94,111.95,18435
01/19/2018,10:20,111.95,111.97,111.75,111.78,23374
01/19/2018,10:25,111.76,112.11,111.76,111.93,16837
01/19/2018,10:30,111.93,112.11,111.9,112.08,53581
01/19/2018,10:35,112.05,112.21,112.03,112.21,10552
01/19/2018,10:40,112.19,112.47,112.17,112.28,14322
01/19/2018,10:45,112.29,112.32,112.1,112.15,10762
01/19/2018,10:50,112.09,112.34,112.03,112.31,8324
01/19/2018,10:55,112.38,112.43,112.25,112.37,7591
01/19/2018,11:00,112.36,112.36,112.02,112.08,10582
01/19/2018,11:05,112.1,112.11,111.94,112.07,8243
01/19/2018,11:10,112.1,112.39,112.1,112.39,5936
01/19/2018,11:15,112.4,112.47,112.35,112.43,24772
01/19/2018,11:20,112.4,112.4,112.13,112.13,6937
01/19/2018,11:25,112.11,112.21,112.01,112.14,14348
01/19/2018,11:30,112.14,112.24,112.02,112.11,27412
01/19/2018,11:35,112.11,112.26,112.04,112.12,24885
01/19/2018,11:40,112.13,112.29,112.1,112.27,20516
01/19/2018,11:45,112.27,112.28,112.12,112.24,8344
01/19/2018,11:50,112.27,112.29,112.14,112.17,39650
01/19/2018,11:55,112.16,112.38,112.14,112.38,9042
01/19/2018,12:00,112.38,112.47,112.32,112.32,9455
01/19/2018,12:05,112.36,112.53,112.36,112.43,11644
01/19/2018,12:10,112.45,112.57,112.45,112.48,7397
01/19/2018,12:15,112.45,112.54,112.36,112.36,6622
01/19/2018,12:20,112.41,112.52,112.41,112.43,7227
01/19/2018,12:25,112.38,112.41,112.33,112.38,4231
01/19/2018,12:30,112.38,112.38,112.25,112.25,5273
01/19/2018,12:35,112.25,112.35,112.2,112.28,11376
01/19/2018,12:40,112.27,112.27,112.22,112.25,4096
01/19/2018,12:45,112.27,112.29,112.23,112.27,5075
01/19/2018,12:50,112.26,112.38,112.2,112.38,9845
01/19/2018,12:55,112.36,112.37,112.22,112.22,3501
01/19/2018,13:00,112.24,112.29,112.18,112.29,6800
01/19/2018,13:05,112.29,112.29,112.17,112.22,6715
01/19/2018,13:10,112.21,112.28,112.18,112.18,14176
01/19/2018,13:15,112.18,112.25,112.17,112.25,8233
01/19/2018,13:20,112.26,112.26,112.17,112.17,4683
01/19/2018,13:25,112.2,112.32,112.2,112.26,5896
01/19/2018,13:30,112.27,112.42,112.27,112.41,9786
01/19/2018,13:35,112.42,112.42,112.32,112.35,4745
01/19/2018,13:40,112.34,112.38,112.29,112.34,6191
01/19/2018,13:45,112.35,112.41,112.33,112.34,6371
01/19/2018,13:50,112.36,112.45,112.36,112.45,6960
01/19/2018,13:55,112.47,112.47,112.42,112.47,5374
01/19/2018,14:00,112.46,112.53,112.46,112.49,7586
01/19/2018,14:05,112.51,112.58,112.46,112.55,12975
01/19/2018,14:10,112.54,112.61,112.46,112.46,13303
01/19/2018,14:15,112.44,112.56,112.44,112.53,9785
01/19/2018,14:20,112.55,112.57,112.38,112.49,16605
01/19/2018,14:25,112.48,112.52,112.4,112.44,13489
01/19/2018,14:30,112.44,112.51,112.43,112.47,17658
01/19/2018,14:35,112.47,112.53,112.4,112.41,26296
01/19/2018,14:40,112.39,112.4,112.33,112.34,24129
01/19/2018,14:45,112.36,112.43,112.31,112.4,14364
01/19/2018,14:50,112.39,112.43,112.35,112.37,19421
01/19/2018,14:55,112.36,112.37,112.24,112.24,13897
01/19/2018,15:00,112.23,112.27,112.16,112.26,17115
01/19/2018,15:05,112.27,112.39,112.27,112.32,24151
01/19/2018,15:10,112.31,112.38,112.31,112.38,25187
01/19/2018,15:15,112.38,112.47,112.38,112.46,45579
01/19/2018,15:20,112.46,112.49,112.33,112.34,31322
01/19/2018,15:25,112.35,112.37,112.27,112.3,23711
01/19/2018,15:30,112.32,112.42,112.32,112.37,24184
01/19/2018,15:35,112.4,112.4,112.29,112.3,24168
01/19/2018,15:40,112.3,112.5,112.27,112.48,44303
01/19/2018,15:45,112.48,112.55,112.38,112.49,60737
01/19/2018,15:50,112.49,112.5,112.4,112.44,59164
01/19/2018,15:55,112.43,112.53,112.39,112.49,120576
01/19/2018,16:00,112.48,112.5,112.48,112.5,908351
01/19/2018,16:50,112.48,112.48,112.48,112.48,183
01/19/2018,17:30,112.48,112.48,112.48,112.48,4982
01/19/2018,18:00,112.5,112.5,112.5,112.5,255
01/22/2018,09:30,112.63,113.17,112.52,113.08,43979
01/22/2018,09:35,113.12,113.55,112.95,113.46,21419
01/22/2018,09:40,113.57,113.57,113.13,113.27,14998
01/22/2018,09:45,113.28,113.28,113.03,113.08,19039
01/22/2018,09:50,113.15,113.26,113.07,113.15,20520
01/22/2018,09:55,113.15,113.23,113.07,113.16,14634
01/22/2018,10:00,113.17,113.29,113.1,113.21,17711
01/22/2018,10:05,113.22,113.39,113.14,113.39,34927
01/22/2018,10:10,113.35,113.57,113.31,113.54,26022
01/22/2018,10:15,113.57,113.6,113.23,113.31,69500
01/22/2018,10:20,113.22,113.25,113.04,113.18,14796
01/22/2018,10:25,113.2,113.62,113.19,113.41,18149
01/22/2018,10:30,113.4,113.43,113.15,113.33,16054
01/22/2018,10:35,113.25,113.41,113.25,113.39,11676
01/22/2018,10:40,113.4,113.62,113.36,113.62,17256
01/22/2018,10:45,113.6,113.76,113.6,113.72,29956
01/22/2018,10:50,113.7,113.81,113.63,113.8,23870
01/22/2018,10:55,113.8,114,113.8,113.88,40041
01/22/2018,11:00,113.86,114.08,113.86,113.98,13350
01/22/2018,11:05,113.99,114.23,113.99,114.08,17812
01/22/2018,11:10,114.06,114.47,114.01,114.38,27127
01/22/2018,11:15,114.38,114.67,114.32,114.62,43382
01/22/2018,11:20,114.62,114.64,114.53,114.63,21203
01/22/2018,11:25,114.64,114.71,114.48,114.49,16578
01/22/2018,11:30,114.48,114.5,114.25,114.35,27828
01/22/2018,11:35,114.35,114.61,114.35,114.42,27960
01/22/2018,11:40,114.44,114.45,114.12,114.14,11735
01/22/2018,11:45,114.12,114.17,114.01,114.12,17904
01/22/2018,11:50,114.13,114.13,113.94,114.02,6974
01/22/2018,11:55,114,114.15,113.9,114.13,14494
01/22/2018,12:00,114.11,114.2,113.96,114.03,8129
01/22/2018,12:05,114.05,114.17,114.01,114.16,10495
01/22/2018,12:10,114.16,114.36,114.12,114.33,13155
01/22/2018,12:15,114.31,114.44,114.28,114.29,16724
01/22/2018,12:20,114.27,114.32,114.22,114.24,7266
01/22/2018,12:25,114.24,114.24,114.05,114.12,12992
01/22/2018,12:30,114.13,114.22,114.05,114.1,12434
01/22/2018,12:35,114.12,114.19,114.06,114.09,6521
01/22/2018,12:40,114.1,114.15,114.07,114.07,9471
01/22/2018,12:45,114.06,114.17,114.05,114.17,5873
01/22/2018,12:50,114.18,114.26,114.16,114.17,6006
01/22/2018,12:55,114.23,114.24,114.11,114.11,6124
01/22/2018,13:00,114.13,114.16,114.04,114.08,6422
01/22/2018,13:05,114.05,114.11,114.03,114.06,6069
01/22/2018,13:10,114.08,114.23,114.03,114.23,6833
01/22/2018,13:15,114.24,114.25,114.17,114.23,10868
01/22/2018,13:20,114.24,114.29,114.22,114.25,7850
01/22/2018,13:25,114.26,114.32,114.18,114.3,7881
01/22/2018,13:30,114.31,114.36,114.29,114.31,7799
01/22/2018,13:35,114.31,114.36,114.28,114.34,9091
01/22/2018,13:40,114.35,114.38,114.29,114.38,8421
01/22/2018,13:45,114.37,114.48,114.36,114.45,12286
01/22/2018,13:50,114.47,114.56,114.43,114.43,17092
01/22/2018,13:55,114.44,114.48,114.39,114.48,9275
01/22/2018,14:00,114.48,114.49,114.32,114.35,16975
01/22/2018,14:05,114.35,114.55,114.35,114.53,10873
01/22/2018,14:10,114.55,114.55,114.36,114.44,12053
01/22/2018,14:15,114.44,114.53,114.42,114.5,10490
01/22/2018,14:20,114.51,114.59,114.42,114.47,21732
01/22/2018,14:25,114.46,114.68,114.46,114.63,17887
01/22/2018,14:30,114.62,114.63,114.52,114.53,15072
01/22/2018,14:35,114.53,114.64,114.47,114.48,12987
01/22/2018,14:40,114.51,114.53,114.36,114.36,12328
01/22/2018,14:45,114.34,114.45,114.34,114.45,13945
01/22/2018,14:50,114.41,114.52,114.41,114.46,18980
01/22/2018,14:55,114.47,114.47,114.36,114.43,16095
01/22/2018,15:00,114.44,114.55,114.44,114.54,10135
01/22/2018,15:05,114.57,114.57,114.43,114.43,21316
01/22/2018,15:10,114.43,114.53,114.43,114.53,20417
01/22/2018,15:15,114.54,114.59,114.44,114.58,33422
01/22/2018,15:20,114.58,114.69,114.58,114.58,19829
01/22/2018,15:25,114.58,114.63,114.56,114.6,19185
01/22/2018,15:30,114.61,114.64,114.5,114.55,24970
01/22/2018,15:35,114.53,114.59,114.46,114.57,30613
01/22/2018,15:40,114.57,114.62,114.53,114.6,35506
01/22/2018,15:45,114.6,114.73,114.6,114.73,53092
01/22/2018,15:50,114.73,114.93,114.73,114.91,69789
01/22/2018,15:55,114.91,114.92,114.81,114.91,149277
01/22/2018,16:00,114.89,114.89,114.89,114.89,223962
01/23/2018,08:40,115.55,115.55,115.55,115.55,102
01/23/2018,09:10,115.42,115.42,115.42,115.42,102
01/23/2018,09:30,115.11,115.64,114.95,115.53,68318
01/23/2018,09:35,115.55,115.75,115.31,115.75,40632
01/23/2018,09:40,115.74,116.14,115.62,116.1,41222
01/23/2018,09:45,116.14,116.41,116.08,116.4,40025
01/23/2018,09:50,116.38,116.64,116.28,116.58,50833
01/23/2018,09:55,116.58,116.58,116.23,116.32,44773
01/23/2018,10:00,116.36,116.48,115.97,116.05,43164
01/23/2018,10:05,116,116.18,116,116.03,43396
01/23/2018,10:10,116.05,116.42,116.03,116.13,36858
01/23/2018,10:15,116.14,116.28,116.07,116.14,65950
01/23/2018,10:20,116.14,116.22,115.99,116.01,51283
01/23/2018,10:25,116.02,116.15,115.9,116.03,38160
01/23/2018,10:30,116.08,116.11,115.57,115.58,19638
01/23/2018,10:35,115.58,115.7,115.45,115.59,35297
01/23/2018,10:40,115.58,115.75,115.54,115.6,21169
01/23/2018,10:45,115.6,115.95,115.57,115.8,25431
01/23/2018,10:50,115.81,116.14,115.78,115.98,25179
01/23/2018,10:55,115.98,116.18,115.94,116.02,24772
01/23/2018,11:00,116.04,116.33,116.04,116.28,20602
01/23/2018,11:05,116.23,116.28,116.01,116.01,17214
01/23/2018,11:10,116.02,116.14,116,116.03,19927
01/23/2018,11:15,116.06,116.2,116.01,116.02,16738
01/23/2018,11:20,116.02,116.15,116.01,116.04,29051
01/23/2018,11:25,116.03,116.16,116.02,116.05,28846
01/23/2018,11:30,116.02,116.09,115.97,115.99,29832
01/23/2018,11:35,115.99,116.01,115.83,115.89,28264
01/23/2018,11:40,115.91,116.14,115.82,116.12,23637
01/23/2018,11:45,116.14,116.14,116.05,116.14,20367
01/23/2018,11:50,116.11,116.12,115.98,116.09,39618
01/23/2018,11:55,116.11,116.25,116.11,116.14,31351
01/23/2018,12:00,116.14,116.22,116.09,116.2,16944
01/23/2018,12:05,116.2,116.25,116.12,116.14,18304
01/23/2018,12:10,116.14,116.16,116.01,116.05,17264
01/23/2018,12:15,116.06,116.12,116.01,116.12,9850
01/23/2018,12:20,116.11,116.12,115.87,115.91,23334
01/23/2018,12:25,115.91,115.92,115.79,115.87,14132
01/23/2018,12:30,115.84,115.97,115.83,115.93,11331
01/23/2018,12:35,115.94,115.94,115.77,115.79,11302
01/23/2018,12:40,115.78,115.78,115.68,115.75,13190
01/23/2018,12:45,115.73,115.79,115.62,115.64,11228
01/23/2018,12:50,115.63,115.95,115.55,115.9,31714
01/23/2018,12:55,115.88,116,115.83,115.97,12688
01/23/2018,13:00,115.99,116.12,115.96,116.1,23733
01/23/2018,13:05,116.05,116.14,116,116.12,10457
01/23/2018,13:10,116.09,116.15,116.04,116.04,7952
01/23/2018,13:15,116.05,116.17,116.04,116.07,5374
01/23/2018,13:20,116.06,116.17,116,116.15,16687
01/23/2018,13:25,116.17,116.2,116.06,116.08,16230
01/23/2018,13:30,116.08,116.12,116.04,116.09,10452
01/23/2018,13:35,116.09,116.13,116,116.13,22073
01/23/2018,13:40,116.12,116.16,116.01,116.03,19671
01/23/2018,13:45,116.02,116.08,116,116,7852
01/23/2018,13:50,115.99,116.19,115.98,116.11,12171
01/23/2018,13:55,116.07,116.16,116.06,116.1,11353
01/23/2018,14:00,116.14,116.17,116.07,116.14,9110
01/23/2018,14:05,116.13,116.14,116.02,116.03,18220
01/23/2018,14:10,116.02,116.12,116.02,116.05,17913
01/23/2018,14:15,116.04,116.07,116.01,116.03,18949
01/23/2018,14:20,116.02,116.06,115.98,116.03,21878
01/23/2018,14:25,116.02,116.18,116,116.13,25889
01/23/2018,14:30,116.12,116.18,116.05,116.17,21638
01/23/2018,14:35,116.18,116.26,116.15,116.25,28930
01/23/2018,14:40,116.25,116.44,116.24,116.43,42905
01/23/2018,14:45,116.4,116.5,116.38,116.43,26469
01/23/2018,14:50,116.43,116.5,116.32,116.35,20484
01/23/2018,14:55,116.34,116.39,116.21,116.21,17576
01/23/2018,15:00,116.23,116.29,116.14,116.22,38866
01/23/2018,15:05,116.2,116.31,116.18,116.31,26720
01/23/2018,15:10,116.31,116.42,116.26,116.4,53188
01/23/2018,15:15,116.4,116.43,116.26,116.29,43138
01/23/2018,15:20,116.26,116.34,116.2,116.3,24824
01/23/2018,15:25,116.29,116.29,116.2,116.26,24178
01/23/2018,15:30,116.26,116.34,116.2,116.33,33982
01/23/2018,15:35,116.33,116.43,116.3,116.39,23034
01/23/2018,15:40,116.39,116.39,116.27,116.35,54772
01/23/2018,15:45,116.35,116.37,116.26,116.27,69124
01/23/2018,15:50,116.27,116.27,116.08,116.11,73651
01/23/2018,15:55,116.11,116.13,115.8,115.89,157961
01/23/2018,16:00,115.89,115.89,115.89,115.89,238644
01/23/2018,16:15,115.89,115.89,115.89,115.89,139
01/23/2018,18:40,115.6,115.6,115.6,115.6,102
01/23/2018,19:25,115.55,115.55,115.55,115.55,102
01/24/2018,09:30,116.04,116.72,115.96,116.72,52654
01/24/2018,09:35,116.72,116.91,116.26,116.37,33151
01/24/2018,09:40,116.45,116.68,116.26,116.46,20136
01/24/2018,09:45,116.47,116.49,116.03,116.03,29335
01/24/2018,09:50,115.95,116.01,115.69,115.89,18388
01/24/2018,09:55,115.86,115.94,115.66,115.82,21400
01/24/2018,10:00,115.91,116.17,115.88,116.07,16472
01/24/2018,10:05,116.06,116.12,115.95,116.12,21422
01/24/2018,10:10,116.11,116.2,116.04,116.04,12775
01/24/2018,10:15,116.06,116.06,115.69,115.74,11248
01/24/2018,10:20,115.7,115.91,115.58,115.81,6606
01/24/2018,10:25,115.66,115.84,115.62,115.81,5110
01/24/2018,10:30,116.04,116.07,115.85,116.04,11874
01/24/2018,10:35,116.07,116.51,116.07,116.43,16286
01/24/2018,10:40,116.51,116.78,116.51,116.66,10991
01/24/2018,10:45,116.6,116.66,116.5,116.5,12426
01/24/2018,10:50,116.5,116.55,116.2,116.28,8626
01/24/2018,10:55,116.26,116.28,116.04,116.26,11542
01/24/2018,11:00,116.32,116.43,116.15,116.32,13462
01/24/2018,11:05,116.36,116.44,116.19,116.19,26794
01/24/2018,11:10,116.22,116.22,115.77,115.77,13958
01/24/2018,11:15,115.77,115.89,115.76,115.83,5762
01/24/2018,11:20,115.81,116,115.77,115.77,15755
01/24/2018,11:25,115.82,115.84,115.59,115.8,29079
01/24/2018,11:30,115.82,116.03,115.82,116.03,30872
01/24/2018,11:35,115.99,116.09,115.65,115.85,41047
01/24/2018,11:40,115.84,115.92,115.7,115.83,26117
01/24/2018,11:45,115.78,115.88,115.64,115.64,10055
01/24/2018,11:50,115.59,115.8,115.55,115.8,5219
01/24/2018,11:55,115.73,115.77,115.5,115.5,7116
01/24/2018,12:00,115.54,115.56,115.26,115.4,13652
01/24/2018,12:05,115.49,115.72,115.49,115.72,30617
01/24/2018,12:10,115.65,115.73,115.61,115.69,4246
01/24/2018,12:15,115.73,115.81,115.69,115.8,8962
01/24/2018,12:20,115.81,115.93,115.69,115.9,11407
01/24/2018,12:25,115.85,115.92,115.72,115.83,5586
01/24/2018,12:30,115.75,115.93,115.73,115.92,9312
01/24/2018,12:35,115.86,115.86,115.68,115.72,17558
01/24/2018,12:40,115.71,115.8,115.62,115.8,21510
01/24/2018,12:45,115.78,115.87,115.72,115.84,16094
01/24/2018,12:50,115.87,115.99,115.81,115.97,12978
01/24/2018,12:55,115.99,116.06,115.96,116.05,12801
01/24/2018,13:00,116.08,116.14,115.95,115.95,18387
01/24/2018,13:05,115.99,115.99,115.87,115.95,21571
01/24/2018,13:10,115.94,116.07,115.91,116.07,11986
01/24/2018,13:15,116.06,116.15,115.99,116.04,15672
01/24/2018,13:20,116.05,116.09,115.95,116.09,11491
01/24/2018,13:25,116.11,116.14,116.01,116.13,5881
01/24/2018,13:30,116.16,116.19,116.01,116.15,11101
01/24/2018,13:35,116.14,116.23,115.97,116.02,6765
01/24/2018,13:40,116.01,116.15,116,116.14,4066
01/24/2018,13:45,116.14,116.23,116.1,116.23,5079
01/24/2018,13:50,116.24,116.4,116.23,116.4,8037
01/24/2018,13:55,116.4,116.4,116.14,116.27,11632
01/24/2018,14:00,116.28,116.28,116.1,116.15,10688
01/24/2018,14:05,116.16,116.23,116.1,116.13,5088
01/24/2018,14:10,116.1,116.35,116.09,116.33,7132
01/24/2018,14:15,116.35,116.42,116.23,116.37,9634
01/24/2018,14:20,116.47,116.48,116.31,116.35,8600
01/24/2018,14:25,116.32,116.43,116.29,116.38,8987
01/24/2018,14:30,116.34,116.47,116.25,116.35,16358
01/24/2018,14:35,116.35,116.46,116.28,116.39,22078
01/24/2018,14:40,116.39,116.53,116.38,116.51,20707
01/24/2018,14:45,116.48,116.63,116.44,116.57,18108
01/24/2018,14:50,116.54,116.57,116.37,116.39,26260
01/24/2018,14:55,116.42,116.53,116.4,116.51,16791
01/24/2018,15:00,116.51,116.51,116.34,116.34,51834
01/24/2018,15:05,116.3,116.48,116.3,116.4,29525
01/24/2018,15:10,116.43,116.46,116.26,116.38,15248
01/24/2018,15:15,116.36,116.44,116.33,116.43,12793
01/24/2018,15:20,116.43,116.51,116.42,116.51,12568
01/24/2018,15:25,116.52,116.59,116.49,116.49,26635
01/24/2018,15:30,116.5,116.52,116.44,116.45,20460
01/24/2018,15:35,116.47,116.64,116.47,116.6,29412
01/24/2018,15:40,116.59,116.69,116.56,116.66,47557
01/24/2018,15:45,116.66,116.93,116.66,116.85,54409
01/24/2018,15:50,116.86,116.86,116.66,116.73,59670
01/24/2018,15:55,116.73,116.73,116.47,116.58,173462
01/24/2018,16:00,116.51,116.51,116.51,116.51,529461
01/24/2018,18:50,116.54,116.54,116.54,116.54,203
01/25/2018,09:30,116.95,117.03,116.46,116.82,58883
01/25/2018,09:35,116.82,117.03,116.34,116.35,16966
01/25/2018,09:40,116.42,116.67,116.3,116.57,16889
01/25/2018,09:45,116.52,116.57,116.33,116.47,11764
01/25/2018,09:50,116.41,116.41,116.13,116.21,9721
01/25/2018,09:55,116.17,116.44,116.09,116.38,17786
01/25/2018,10:00,116.44,116.46,116.15,116.38,24039
01/25/2018,10:05,116.38,116.39,115.98,115.98,11718
01/25/2018,10:10,115.99,116.25,115.96,116.24,10455
01/25/2018,10:15,116.2,116.3,116.09,116.14,14779
01/25/2018,10:20,116.14,116.41,116.12,116.16,9644
01/25/2018,10:25,116.18,116.31,116.11,116.19,13121
01/25/2018,10:30,116.22,116.49,116.21,116.29,17780
01/25/2018,10:35,116.31,116.37,116.17,116.18,21341
01/25/2018,10:40,116.18,116.21,116.05,116.05,14606
01/25/2018,10:45,116.07,116.16,115.83,115.95,13859
01/25/2018,10:50,115.97,115.97,115.62,115.65,10460
01/25/2018,10:55,115.64,115.84,115.41,115.44,27243
01/25/2018,11:00,115.44,115.63,115.42,115.6,29908
01/25/2018,11:05,115.6,115.75,115.58,115.75,18642
01/25/2018,11:10,115.77,116.14,115.77,116.14,13845
01/25/2018,11:15,116.09,116.13,116.03,116.07,12195
