12/12/2017,09:30,111.89,112.13,111.8,111.96,14115
12/12/2017,09:35,111.96,112.12,111.96,112.07,5330
12/12/2017,09:40,112.12,112.17,111.87,112.14,19420
12/12/2017,09:45,112.14,112.14,111.95,112,4428
12/12/2017,09:50,111.97,112.15,111.95,111.96,3340
12/12/2017,09:55,112.01,112.12,111.89,112.01,5559
12/12/2017,10:00,112.01,112.08,111.99,112.08,7595
12/12/2017,10:05,112.08,112.12,112.07,112.07,3208
12/12/2017,10:10,112.06,112.2,112.05,112.18,7729
12/12/2017,10:15,112.17,112.3,112.17,112.24,2380
12/12/2017,10:20,112.31,112.38,112.29,112.37,4960
12/12/2017,10:25,112.36,112.36,112.2,112.22,4731
12/12/2017,10:30,112.17,112.19,112.11,112.11,6163
12/12/2017,10:35,112.11,112.12,112.03,112.05,3723
12/12/2017,10:40,112.03,112.05,111.99,112,4310
12/12/2017,10:45,111.99,112.01,111.97,111.99,3832
12/12/2017,10:50,111.99,112.01,111.87,111.87,5631
12/12/2017,10:55,111.86,111.86,111.83,111.85,3724
12/12/2017,11:00,111.85,111.86,111.82,111.84,5955
12/12/2017,11:05,111.84,111.84,111.7,111.77,5925
12/12/2017,11:10,111.75,111.78,111.73,111.74,7147
12/12/2017,11:15,111.77,111.84,111.77,111.8,6947
12/12/2017,11:20,111.8,111.82,111.71,111.71,7344
12/12/2017,11:25,111.71,111.82,111.71,111.78,9767
12/12/2017,11:30,111.78,111.8,111.74,111.78,19326
12/12/2017,11:35,111.79,111.82,111.68,111.72,19207
12/12/2017,11:40,111.72,111.74,111.71,111.74,2482
12/12/2017,11:45,111.75,111.87,111.75,111.79,20249
12/12/2017,11:50,111.78,111.81,111.75,111.79,23778
12/12/2017,11:55,111.79,112.08,111.75,112.06,22818
12/12/2017,12:00,112.04,112.1,111.91,111.91,5829
12/12/2017,12:05,111.88,111.88,111.79,111.87,4213
12/12/2017,12:10,111.88,111.91,111.88,111.9,5740
12/12/2017,12:15,111.9,112.07,111.9,112.07,7563
12/12/2017,12:20,112.05,112.07,111.88,111.92,20089
12/12/2017,12:25,111.93,111.95,111.83,111.87,6575
12/12/2017,12:30,111.87,111.92,111.85,111.92,3719
12/12/2017,12:35,111.93,111.99,111.89,111.94,14743
12/12/2017,12:40,111.93,111.97,111.91,111.93,4970
12/12/2017,12:45,111.94,111.98,111.9,111.91,21244
12/12/2017,12:50,111.91,111.97,111.91,111.93,10030
12/12/2017,12:55,111.92,111.93,111.9,111.93,5240
12/12/2017,13:00,111.92,111.93,111.91,111.92,6331
12/12/2017,13:05,111.93,111.94,111.87,111.88,16245
12/12/2017,13:10,111.87,111.89,111.87,111.88,2236
12/12/2017,13:15,111.87,111.87,111.8,111.81,2386
12/12/2017,13:20,111.83,111.83,111.78,111.8,7429
12/12/2017,13:25,111.8,111.84,111.8,111.84,1895
12/12/2017,13:30,111.83,111.85,111.82,111.82,2999
12/12/2017,13:35,111.84,111.89,111.84,111.89,4489
12/12/2017,13:40,111.88,111.9,111.88,111.89,3067
12/12/2017,13:45,111.89,111.89,111.78,111.78,6306
12/12/2017,13:50,111.76,111.77,111.7,111.7,2817
12/12/2017,13:55,111.72,111.72,111.6,111.63,13068
12/12/2017,14:00,111.64,111.78,111.5,111.76,357095
12/12/2017,14:05,111.79,112,111.79,111.93,140241
12/12/2017,14:10,111.93,112.11,111.91,111.99,13464
12/12/2017,14:15,112.04,112.1,111.94,112.09,7345
12/12/2017,14:20,112.08,112.08,111.93,111.98,10039
12/12/2017,14:25,111.97,112.05,111.97,112.03,6026
12/12/2017,14:30,112.03,112.03,111.97,112,9427
12/12/2017,14:35,112,112.04,111.93,112.01,18601
12/12/2017,14:40,112.05,112.07,112.01,112.04,6571
12/12/2017,14:45,112.04,112.16,111.99,112.14,20339
12/12/2017,14:50,112.14,112.26,112.12,112.24,11640
12/12/2017,14:55,112.25,112.25,112.07,112.08,14113
12/12/2017,15:00,112.1,112.19,112.07,112.18,7420
12/12/2017,15:05,112.18,112.18,112.03,112.03,11532
12/12/2017,15:10,112.04,112.08,112.02,112.03,8504
12/12/2017,15:15,112.03,112.03,111.95,111.97,9355
12/12/2017,15:20,111.97,112.14,111.93,112.14,118619
12/12/2017,15:25,112.15,112.26,112.14,112.2,13924
12/12/2017,15:30,112.19,112.21,112.17,112.17,14815
12/12/2017,15:35,112.17,112.21,112.15,112.17,19426
12/12/2017,15:40,112.16,112.17,112.14,112.16,43459
12/12/2017,15:45,112.16,112.16,112.14,112.14,39555
12/12/2017,15:50,112.14,112.16,112.07,112.09,433270
12/12/2017,15:55,112.09,112.09,112,112.02,58278
12/12/2017,16:00,111.93,112.04,111.93,112.04,86209
12/12/2017,16:45,112.04,112.04,112.04,112.04,3570
12/13/2017,09:30,112.22,112.33,112.16,112.25,15134
12/13/2017,09:35,112.28,112.33,112.21,112.21,6054
12/13/2017,09:40,112.22,112.39,112.22,112.33,6779
12/13/2017,09:45,112.31,112.35,112.24,112.34,10286
12/13/2017,09:50,112.35,112.38,112.3,112.32,6111
12/13/2017,09:55,112.32,112.32,112.18,112.23,8449
12/13/2017,10:00,112.26,112.47,112.26,112.42,8495
12/13/2017,10:05,112.45,112.48,112.41,112.48,5845
12/13/2017,10:10,112.55,112.64,112.52,112.56,8252
12/13/2017,10:15,112.58,112.62,112.53,112.62,7869
12/13/2017,10:20,112.6,112.75,112.58,112.64,11443
12/13/2017,10:25,112.66,112.73,112.66,112.69,3414
12/13/2017,10:30,112.74,112.85,112.71,112.79,6659
12/13/2017,10:35,112.79,112.81,112.73,112.73,6101
12/13/2017,10:40,112.73,112.74,112.58,112.59,6080
12/13/2017,10:45,112.6,112.66,112.58,112.64,9466
12/13/2017,10:50,112.65,112.69,112.51,112.64,24951
12/13/2017,10:55,112.6,112.66,112.55,112.61,3647
12/13/2017,11:00,112.59,112.67,112.59,112.66,13411
12/13/2017,11:05,112.64,112.65,112.56,112.59,4819
12/13/2017,11:10,112.54,112.63,112.47,112.48,58910
12/13/2017,11:15,112.51,112.58,112.45,112.54,33141
12/13/2017,11:20,112.54,112.58,112.49,112.54,4507
12/13/2017,11:25,112.55,112.66,112.55,112.56,7548
12/13/2017,11:30,112.55,112.64,112.5,112.55,35233
12/13/2017,11:35,112.55,112.58,112.51,112.57,4803
12/13/2017,11:40,112.57,112.62,112.54,112.54,6823
12/13/2017,11:45,112.53,112.68,112.49,112.68,6775
12/13/2017,11:50,112.68,112.68,112.49,112.49,29582
12/13/2017,11:55,112.54,112.92,112.54,112.88,29157
12/13/2017,12:00,112.88,112.88,112.67,112.68,6591
12/13/2017,12:05,112.69,112.74,112.69,112.69,4588
12/13/2017,12:10,112.66,112.67,112.55,112.55,5477
12/13/2017,12:15,112.53,112.6,112.52,112.58,3072
12/13/2017,12:20,112.58,112.62,112.57,112.62,1552
12/13/2017,12:25,112.61,112.61,112.52,112.6,4633
12/13/2017,12:30,112.63,112.66,112.61,112.64,2703
12/13/2017,12:35,112.66,112.69,112.6,112.62,3967
12/13/2017,12:40,112.63,112.66,112.61,112.66,2306
12/13/2017,12:45,112.67,112.72,112.64,112.66,2577
12/13/2017,12:50,112.69,112.69,112.63,112.63,3433
12/13/2017,12:55,112.63,112.65,112.5,112.54,16972
12/13/2017,13:00,112.54,112.56,112.46,112.47,5845
12/13/2017,13:05,112.49,112.49,112.46,112.46,1345
12/13/2017,13:10,112.47,112.48,112.39,112.43,4665
12/13/2017,13:15,112.43,112.44,112.41,112.44,29340
12/13/2017,13:20,112.44,112.65,112.41,112.64,10857
12/13/2017,13:25,112.62,112.66,112.59,112.66,8007
12/13/2017,13:30,112.68,112.7,112.53,112.56,18007
12/13/2017,13:35,112.54,112.64,112.52,112.53,29551
12/13/2017,13:40,112.55,112.55,112.46,112.5,3724
12/13/2017,13:45,112.54,112.85,112.51,112.85,46315
12/13/2017,13:50,112.89,112.89,112.78,112.8,6943
12/13/2017,13:55,112.81,112.9,112.8,112.87,5507
12/13/2017,14:00,112.93,113.06,112.93,113.02,7607
12/13/2017,14:05,113.07,113.07,112.88,112.88,8754
12/13/2017,14:10,112.88,112.95,112.77,112.84,12045
12/13/2017,14:15,112.84,112.9,112.79,112.89,7240
12/13/2017,14:20,112.86,112.86,112.8,112.82,14622
12/13/2017,14:25,112.84,112.88,112.8,112.88,8814
12/13/2017,14:30,112.9,112.95,112.87,112.9,6986
12/13/2017,14:35,112.9,112.9,112.79,112.82,10850
12/13/2017,14:40,112.82,112.93,112.82,112.87,9860
12/13/2017,14:45,112.86,112.93,112.83,112.91,7473
12/13/2017,14:50,112.91,112.92,112.85,112.92,6361
12/13/2017,14:55,112.9,112.93,112.86,112.93,13204
12/13/2017,15:00,112.93,112.93,112.82,112.87,10212
12/13/2017,15:05,112.89,112.89,112.76,112.78,15682
12/13/2017,15:10,112.79,112.88,112.79,112.85,11498
12/13/2017,15:15,112.85,112.92,112.85,112.86,10578
12/13/2017,15:20,112.86,112.93,112.84,112.91,13725
12/13/2017,15:25,112.91,112.91,112.76,112.82,13015
12/13/2017,15:30,112.81,112.81,112.69,112.72,18668
12/13/2017,15:35,112.72,112.73,112.64,112.65,12948
12/13/2017,15:40,112.64,112.66,112.61,112.62,19238
12/13/2017,15:45,112.63,112.67,112.57,112.63,24127
12/13/2017,15:50,112.62,112.62,112.36,112.36,49117
12/13/2017,15:55,112.37,112.42,112.33,112.4,77328
12/13/2017,16:00,112.53,112.53,112.38,112.38,131122
12/13/2017,16:15,112.38,112.38,112.38,112.38,4639
12/14/2017,09:30,112.44,112.52,112.37,112.37,9115
12/14/2017,09:35,112.5,112.74,112.44,112.49,7517
12/14/2017,09:40,112.53,112.53,112.29,112.29,2364
12/14/2017,09:45,112.34,112.37,112.04,112.06,8291
12/14/2017,09:50,112.01,112.11,111.98,112.07,9224
12/14/2017,09:55,112.07,112.13,112.04,112.08,3847
12/14/2017,10:00,112.11,112.11,111.61,111.75,14983
12/14/2017,10:05,111.75,111.78,111.7,111.78,2275
12/14/2017,10:10,111.81,111.87,111.78,111.82,6055
12/14/2017,10:15,111.82,111.82,111.59,111.6,2724
12/14/2017,10:20,111.56,111.62,111.46,111.51,5573
12/14/2017,10:25,111.51,111.52,111.09,111.21,18301
12/14/2017,10:30,111.22,111.4,111.05,111.12,18837
12/14/2017,10:35,111.12,111.16,111.06,111.07,5689
12/14/2017,10:40,111.11,111.11,110.78,111.09,24870
12/14/2017,10:45,111.04,111.07,110.98,111.02,9792
12/14/2017,10:50,111.04,111.07,110.96,110.98,10422
12/14/2017,10:55,111.02,111.12,111.01,111.01,5484
12/14/2017,11:00,110.94,110.94,110.88,110.88,8321
12/14/2017,11:05,110.87,110.91,110.8,110.9,9154
12/14/2017,11:10,110.9,110.96,110.71,110.78,9453
12/14/2017,11:15,110.77,110.77,110.62,110.7,14595
12/14/2017,11:20,110.72,110.72,110.33,110.38,50250
12/14/2017,11:25,110.39,110.58,110.39,110.44,43171
12/14/2017,11:30,110.52,110.69,110.42,110.68,44744
12/14/2017,11:35,110.7,110.74,110.59,110.68,8267
12/14/2017,11:40,110.65,110.7,110.56,110.7,6528
12/14/2017,11:45,110.69,110.74,110.6,110.63,9911
12/14/2017,11:50,110.65,110.79,110.55,110.74,12062
12/14/2017,11:55,110.74,110.77,110.62,110.74,15505
12/14/2017,12:00,110.76,110.76,110.55,110.55,5516
12/14/2017,12:05,110.52,110.61,110.5,110.57,3995
12/14/2017,12:10,110.59,110.59,110.46,110.52,7610
12/14/2017,12:15,110.52,110.57,110.45,110.52,6568
12/14/2017,12:20,110.49,110.53,110.44,110.5,10452
12/14/2017,12:25,110.5,110.56,110.42,110.43,6054
12/14/2017,12:30,110.41,110.61,110.41,110.61,9398
12/14/2017,12:35,110.62,110.62,110.44,110.44,3940
12/14/2017,12:40,110.48,110.56,110.44,110.53,2942
12/14/2017,12:45,110.55,110.55,110.48,110.5,3316
12/14/2017,12:50,110.52,110.52,110.39,110.44,2711
12/14/2017,12:55,110.44,110.45,110.36,110.4,4137
12/14/2017,13:00,110.4,110.49,110.4,110.46,6064
12/14/2017,13:05,110.46,110.46,110.39,110.46,3718
12/14/2017,13:10,110.44,110.45,110.4,110.4,3625
12/14/2017,13:15,110.39,110.4,110.34,110.37,8584
12/14/2017,13:20,110.35,110.36,110.31,110.31,5429
12/14/2017,13:25,110.31,110.32,110.29,110.29,3832
12/14/2017,13:30,110.3,110.33,110.28,110.28,7748
12/14/2017,13:35,110.28,110.28,110.12,110.12,7616
12/14/2017,13:40,110.13,110.13,110.02,110.02,5122
12/14/2017,13:45,110,110.06,109.97,110.01,11910
12/14/2017,13:50,110.02,110.03,109.91,109.91,5903
12/14/2017,13:55,109.91,109.91,109.8,109.8,3851
12/14/2017,14:00,109.81,109.83,109.77,109.82,9931
12/14/2017,14:05,109.8,109.86,109.8,109.81,9407
12/14/2017,14:10,109.81,109.94,109.81,109.89,5930
12/14/2017,14:15,109.92,110.04,109.9,109.91,7577
12/14/2017,14:20,109.9,109.94,109.8,109.8,12237
12/14/2017,14:25,109.8,109.8,109.54,109.54,10746
12/14/2017,14:30,109.5,109.72,109.49,109.68,13729
12/14/2017,14:35,109.68,109.72,109.61,109.64,10111
12/14/2017,14:40,109.6,109.79,109.53,109.67,133790
12/14/2017,14:45,109.64,109.75,109.62,109.73,21249
12/14/2017,14:50,109.75,110.07,109.75,110.05,78079
12/14/2017,14:55,110.07,110.17,110.05,110.13,10318
12/14/2017,15:00,110.11,110.16,110.04,110.12,11336
12/14/2017,15:05,110.15,110.15,110.02,110.05,13261
12/14/2017,15:10,110.06,110.1,110.04,110.08,12779
12/14/2017,15:15,110.08,110.09,110.02,110.04,12159
12/14/2017,15:20,110.03,110.13,110.02,110.03,30434
12/14/2017,15:25,110.02,110.14,110.01,110.07,40427
12/14/2017,15:30,110.08,110.19,109.97,110.18,75232
12/14/2017,15:35,110.18,110.2,110.16,110.17,14864
12/14/2017,15:40,110.18,110.18,110.14,110.15,21055
12/14/2017,15:45,110.14,110.16,110.14,110.15,32838
12/14/2017,15:50,110.14,110.16,110.14,110.14,106568
12/14/2017,15:55,110.14,110.16,110.02,110.04,112310
12/14/2017,16:00,110.99,110.99,110.04,110.04,339254
12/14/2017,16:40,110.5,111.27,110.5,111.27,310
12/14/2017,16:45,110.31,110.31,110.31,110.31,103
12/15/2017,09:05,110.04,110.04,110.04,110.04,11051
12/15/2017,09:30,110.89,111.05,110.6,110.68,353061
12/15/2017,09:35,110.67,111.22,110.51,111.12,119058
12/15/2017,09:40,111.13,111.41,110.9,111.29,41697
12/15/2017,09:45,111.3,111.64,111.16,111.51,24038
12/15/2017,09:50,111.49,111.54,111.24,111.29,6822
12/15/2017,09:55,111.25,111.25,110.82,110.98,13502
12/15/2017,10:00,110.98,111.1,110.93,111.04,11106
12/15/2017,10:05,111.05,111.08,110.91,110.91,10562
12/15/2017,10:10,110.86,110.98,110.86,110.87,7903
12/15/2017,10:15,110.89,111.42,110.89,111.12,42838
12/15/2017,10:20,111.08,111.21,111.02,111.02,11487
12/15/2017,10:25,111.04,111.06,110.79,110.94,28067
12/15/2017,10:30,110.87,111.11,110.81,111.01,14223
12/15/2017,10:35,110.98,111,110.86,110.87,59120
12/15/2017,10:40,110.87,110.91,110.84,110.9,3607
12/15/2017,10:45,110.91,111,110.8,111,9780
12/15/2017,10:50,110.96,110.96,110.79,110.81,4653
12/15/2017,10:55,110.82,110.99,110.82,110.85,21538
12/15/2017,11:00,110.89,111.09,110.85,111.04,72238
12/15/2017,11:05,111.07,111.18,111.05,111.06,15462
12/15/2017,11:10,111.05,111.18,111.05,111.12,28994
12/15/2017,11:15,111.12,111.24,111.07,111.13,15040
12/15/2017,11:20,111.11,111.18,111.07,111.08,11792
12/15/2017,11:25,111.08,111.2,111.05,111.17,5577
12/15/2017,11:30,111.18,111.26,111.14,111.23,12943
12/15/2017,11:35,111.23,111.24,111.14,111.2,3869
12/15/2017,11:40,111.2,111.26,111.15,111.18,5803
12/15/2017,11:45,111.15,111.18,111.1,111.17,6239
12/15/2017,11:50,111.13,111.14,111.07,111.12,12915
12/15/2017,11:55,111.14,111.3,111.08,111.25,18468
12/15/2017,12:00,111.25,111.27,111.2,111.2,14784
12/15/2017,12:05,111.17,111.19,111.15,111.19,8084
12/15/2017,12:10,111.17,111.22,111.1,111.16,7259
12/15/2017,12:15,111.16,111.2,111.12,111.17,7466
12/15/2017,12:20,111.18,111.19,111.14,111.16,27803
12/15/2017,12:25,111.18,111.28,111.17,111.24,10958
12/15/2017,12:30,111.26,111.27,111.16,111.25,7846
12/15/2017,12:35,111.25,111.27,111.19,111.21,2178
12/15/2017,12:40,111.22,111.24,111.17,111.19,5968
12/15/2017,12:45,111.2,111.22,111.15,111.2,6139
12/15/2017,12:50,111.2,111.25,111.18,111.18,3207
12/15/2017,12:55,111.17,111.2,111.15,111.15,5667
12/15/2017,13:00,111.14,111.2,111.04,111.19,33416
12/15/2017,13:05,111.17,111.22,111.12,111.22,13005
12/15/2017,13:10,111.22,111.52,111.21,111.45,12346
12/15/2017,13:15,111.44,111.53,111.43,111.53,5855
12/15/2017,13:20,111.52,111.58,111.5,111.51,5277
12/15/2017,13:25,111.51,111.53,111.37,111.46,3724
12/15/2017,13:30,111.45,111.55,111.44,111.51,11295
12/15/2017,13:35,111.47,111.49,111.35,111.38,6108
12/15/2017,13:40,111.41,111.42,111.3,111.3,7284
12/15/2017,13:45,111.36,111.37,111.25,111.31,7656
12/15/2017,13:50,111.28,111.3,111.23,111.27,7424
12/15/2017,13:55,111.24,111.29,111.2,111.21,8284
12/15/2017,14:00,111.21,111.4,111.2,111.4,6671
12/15/2017,14:05,111.4,111.45,111.37,111.41,3267
12/15/2017,14:10,111.42,111.54,111.42,111.53,10130
12/15/2017,14:15,111.53,111.63,111.49,111.57,5157
12/15/2017,14:20,111.55,111.61,111.51,111.51,9544
12/15/2017,14:25,111.49,111.54,111.47,111.49,21919
12/15/2017,14:30,111.49,111.58,111.48,111.52,15494
12/15/2017,14:35,111.51,111.53,111.47,111.5,11707
12/15/2017,14:40,111.51,111.55,111.48,111.52,6156
12/15/2017,14:45,111.52,111.55,111.48,111.52,6460
12/15/2017,14:50,111.5,111.56,111.47,111.49,36385
12/15/2017,14:55,111.49,111.54,111.2,111.5,36948
12/15/2017,15:00,111.51,111.65,111.5,111.54,10067
12/15/2017,15:05,111.6,111.6,111.49,111.49,10048
12/15/2017,15:10,111.51,111.58,111.49,111.52,8292
12/15/2017,15:15,111.54,111.55,111.51,111.53,7460
12/15/2017,15:20,111.54,111.54,111.42,111.46,20801
12/15/2017,15:25,111.47,111.51,111.46,111.47,17032
12/15/2017,15:30,111.46,111.49,111.34,111.41,20196
12/15/2017,15:35,111.41,111.41,111.27,111.3,15734
12/15/2017,15:40,111.3,111.42,111.3,111.37,38987
12/15/2017,15:45,111.4,111.42,111.26,111.27,115869
12/15/2017,15:50,111.28,111.3,111.14,111.21,63588
12/15/2017,15:55,111.21,111.28,111.17,111.25,199141
12/15/2017,16:00,111.26,111.26,111.26,111.26,341154
12/15/2017,16:05,111.26,111.26,111.26,111.26,77878
12/15/2017,16:15,111.26,111.26,111.26,111.26,11378
12/15/2017,16:50,111.25,111.25,111.25,111.25,621
12/15/2017,16:55,111.26,111.26,111.26,111.26,4605
12/18/2017,09:10,111.78,111.78,111.78,111.78,310
12/18/2017,09:30,111.78,112.12,111.52,111.89,21665
12/18/2017,09:35,111.89,112.16,111.89,112.14,7966
12/18/2017,09:40,112.23,112.3,112.17,112.2,2908
12/18/2017,09:45,112.14,112.27,112.14,112.27,9827
12/18/2017,09:50,112.27,112.46,112.24,112.36,4435
12/18/2017,09:55,112.36,112.45,112.36,112.45,4214
12/18/2017,10:00,112.45,112.53,112.4,112.51,12804
12/18/2017,10:05,112.54,112.65,112.54,112.63,12750
12/18/2017,10:10,112.62,112.66,112.6,112.63,1914
12/18/2017,10:15,112.63,112.65,112.37,112.39,15382
12/18/2017,10:20,112.43,112.47,112.34,112.36,9872
12/18/2017,10:25,112.35,112.47,112.35,112.46,12307
12/18/2017,10:30,112.46,112.5,112.44,112.46,9279
12/18/2017,10:35,112.46,112.46,112.26,112.26,3227
12/18/2017,10:40,112.3,112.36,112.24,112.33,12600
12/18/2017,10:45,112.31,112.38,112.24,112.38,5378
12/18/2017,10:50,112.37,112.4,112.29,112.39,2427
12/18/2017,10:55,112.4,112.52,112.4,112.46,2971
12/18/2017,11:00,112.39,112.43,112.26,112.28,4164
12/18/2017,11:05,112.28,112.32,112.23,112.32,8587
12/18/2017,11:10,112.37,112.38,112.34,112.35,2746
12/18/2017,11:15,112.38,112.38,112.26,112.31,4547
12/18/2017,11:20,112.29,112.34,112.25,112.33,15163
12/18/2017,11:25,112.3,112.3,112.16,112.22,5740
12/18/2017,11:30,112.2,112.28,112.14,112.28,7726
12/18/2017,11:35,112.26,112.29,112.21,112.25,4145
12/18/2017,11:40,112.22,112.28,112.13,112.23,11897
12/18/2017,11:45,112.24,112.24,112.11,112.11,15189
12/18/2017,11:50,112.07,112.32,112.05,112.29,11375
12/18/2017,11:55,112.26,112.3,112.2,112.23,4581
12/18/2017,12:00,112.2,112.28,112.14,112.27,12026
12/18/2017,12:05,112.27,112.33,112.18,112.19,10227
12/18/2017,12:10,112.21,112.21,111.95,111.95,7127
12/18/2017,12:15,111.95,112.08,111.94,112.07,7574
12/18/2017,12:20,112.07,112.09,111.96,111.99,7480
12/18/2017,12:25,111.98,112,111.87,111.87,9197
12/18/2017,12:30,111.89,111.96,111.85,111.87,9626
12/18/2017,12:35,111.87,112.16,111.85,112.14,26792
12/18/2017,12:40,112.14,112.15,112.08,112.1,13697
12/18/2017,12:45,112.1,112.17,112.07,112.14,14819
12/18/2017,12:50,112.14,112.18,112.1,112.11,7282
12/18/2017,12:55,112.1,112.22,112.09,112.22,13044
12/18/2017,13:00,112.22,112.27,112.14,112.17,11455
12/18/2017,13:05,112.16,112.22,112.14,112.16,5055
12/18/2017,13:10,112.15,112.16,112.12,112.15,3100
12/18/2017,13:15,112.14,112.27,112.12,112.21,13361
12/18/2017,13:20,112.2,112.2,112.12,112.17,4073
12/18/2017,13:25,112.18,112.23,112.18,112.22,2544
12/18/2017,13:30,112.27,112.33,112.25,112.3,3754
12/18/2017,13:35,112.3,112.31,112.26,112.26,2613
12/18/2017,13:40,112.26,112.31,112.25,112.3,4514
12/18/2017,13:45,112.29,112.29,112.21,112.26,6734
12/18/2017,13:50,112.22,112.23,112.18,112.18,2689
12/18/2017,13:55,112.16,112.19,112.12,112.15,3262
12/18/2017,14:00,112.15,112.18,112.08,112.08,17438
12/18/2017,14:05,112.08,112.16,112.08,112.16,13218
12/18/2017,14:10,112.16,112.18,112.12,112.16,9962
12/18/2017,14:15,112.16,112.16,112.03,112.03,12523
12/18/2017,14:20,112.03,112.03,111.95,111.99,7625
12/18/2017,14:25,112,112.09,111.99,112.09,4141
12/18/2017,14:30,112.09,112.11,112.08,112.1,5984
12/18/2017,14:35,112.08,112.11,111.95,112.11,15326
12/18/2017,14:40,112.11,112.12,112.07,112.12,8324
12/18/2017,14:45,112.13,112.17,112.1,112.16,7086
12/18/2017,14:50,112.14,112.16,112.09,112.09,3384
12/18/2017,14:55,112.1,112.18,112.09,112.18,5897
12/18/2017,15:00,112.19,112.19,112.14,112.15,5901
12/18/2017,15:05,112.15,112.2,112.06,112.08,39757
12/18/2017,15:10,112.08,112.28,112.08,112.27,9691
12/18/2017,15:15,112.27,112.34,112.23,112.26,14966
12/18/2017,15:20,112.25,112.3,112.25,112.26,10290
12/18/2017,15:25,112.26,112.27,112.07,112.11,13747
12/18/2017,15:30,112.12,112.2,112.11,112.18,12636
12/18/2017,15:35,112.18,112.2,112.14,112.2,16481
12/18/2017,15:40,112.21,112.22,112.18,112.22,13474
12/18/2017,15:45,112.21,112.23,112.18,112.22,26232
12/18/2017,15:50,112.21,112.31,112.18,112.3,33836
12/18/2017,15:55,112.3,112.3,112.23,112.28,80351
12/18/2017,16:00,112.27,112.27,112.27,112.27,217782
12/18/2017,18:05,112.43,112.43,112.43,112.43,103
12/18/2017,18:10,112.43,112.43,112.43,112.43,207
12/19/2017,09:15,112.27,112.27,112.27,112.27,92096
12/19/2017,09:30,112.8,113.04,112.37,112.66,16223
12/19/2017,09:35,112.69,112.8,112.22,112.33,22545
12/19/2017,09:40,112.34,112.64,112.26,112.52,9055
12/19/2017,09:45,112.61,112.74,112.4,112.41,4677
12/19/2017,09:50,112.38,112.4,112.3,112.4,36573
12/19/2017,09:55,112.41,112.77,112.41,112.76,6984
12/19/2017,10:00,112.73,112.75,112.66,112.67,9075
12/19/2017,10:05,112.66,112.66,112.54,112.55,4978
12/19/2017,10:10,112.59,112.61,112.49,112.49,5403
12/19/2017,10:15,112.53,112.56,112.47,112.56,4432
12/19/2017,10:20,112.54,112.68,112.53,112.65,6362
12/19/2017,10:25,112.65,112.66,112.55,112.55,4059
12/19/2017,10:30,112.57,112.57,112.5,112.52,21978
12/19/2017,10:35,112.52,112.78,112.51,112.77,46425
12/19/2017,10:40,112.77,112.78,112.51,112.54,16629
12/19/2017,10:45,112.54,112.57,112.46,112.5,17071
12/19/2017,10:50,112.51,112.58,112.43,112.47,12265
12/19/2017,10:55,112.49,112.5,112.25,112.4,12503
12/19/2017,11:00,112.4,112.43,112.14,112.29,35007
12/19/2017,11:05,112.29,112.36,112.27,112.33,31261
12/19/2017,11:10,112.34,112.5,112.29,112.5,13237
12/19/2017,11:15,112.56,112.61,112.5,112.53,7153
12/19/2017,11:20,112.54,112.68,112.54,112.68,6853
12/19/2017,11:25,112.65,112.8,112.65,112.72,5217
12/19/2017,11:30,112.71,112.81,112.67,112.79,6799
12/19/2017,11:35,112.79,112.81,112.67,112.72,6653
12/19/2017,11:40,112.67,112.74,112.67,112.72,4282
12/19/2017,11:45,112.73,112.73,112.65,112.68,6732
12/19/2017,11:50,112.7,112.77,112.65,112.77,6883
12/19/2017,11:55,112.77,112.86,112.69,112.84,16063
12/19/2017,12:00,112.8,112.86,112.64,112.64,6413
12/19/2017,12:05,112.65,112.65,112.6,112.6,3710
12/19/2017,12:10,112.62,112.65,112.53,112.65,3740
12/19/2017,12:15,112.64,112.69,112.62,112.68,3777
12/19/2017,12:20,112.67,112.67,112.57,112.59,2732
12/19/2017,12:25,112.57,112.65,112.57,112.59,5350
12/19/2017,12:30,112.59,112.69,112.59,112.68,3931
12/19/2017,12:35,112.68,112.7,112.5,112.5,2926
12/19/2017,12:40,112.48,112.48,112.37,112.45,5793
12/19/2017,12:45,112.47,112.53,112.45,112.53,5663
12/19/2017,12:50,112.52,112.56,112.43,112.55,2172
12/19/2017,12:55,112.54,112.59,112.54,112.58,3127
12/19/2017,13:00,112.55,112.56,112.53,112.53,1655
12/19/2017,13:05,112.57,112.61,112.5,112.5,3262
12/19/2017,13:10,112.5,112.51,112.43,112.45,2245
12/19/2017,13:15,112.4,112.53,112.4,112.52,7786
12/19/2017,13:20,112.53,112.54,112.48,112.5,6287
12/19/2017,13:25,112.5,112.54,112.49,112.52,2276
12/19/2017,13:30,112.52,112.58,112.49,112.52,10036
12/19/2017,13:35,112.48,112.53,112.47,112.53,8320
12/19/2017,13:40,112.5,112.53,112.5,112.5,5611
12/19/2017,13:45,112.5,112.55,112.48,112.52,9206
12/19/2017,13:50,112.52,112.54,112.5,112.54,4761
12/19/2017,13:55,112.51,112.52,112.49,112.5,9791
12/19/2017,14:00,112.49,112.52,112.49,112.5,4007
12/19/2017,14:05,112.49,112.53,112.48,112.49,4866
12/19/2017,14:10,112.49,112.53,112.49,112.5,7724
12/19/2017,14:15,112.5,112.52,112.41,112.42,2100
12/19/2017,14:20,112.42,112.53,112.42,112.53,4720
12/19/2017,14:25,112.51,112.54,112.48,112.49,9352
12/19/2017,14:30,112.48,112.48,112.42,112.47,3079
12/19/2017,14:35,112.47,112.47,112.43,112.45,4072
12/19/2017,14:40,112.44,112.5,112.44,112.47,3579
12/19/2017,14:45,112.46,112.55,112.45,112.47,8056
12/19/2017,14:50,112.5,112.5,112.48,112.48,14684
12/19/2017,14:55,112.48,112.51,112.43,112.45,12399
12/19/2017,15:00,112.43,112.44,112.4,112.42,14054
12/19/2017,15:05,112.41,112.44,112.38,112.4,15165
12/19/2017,15:10,112.4,112.46,112.34,112.45,22284
12/19/2017,15:15,112.46,112.47,112.38,112.43,18335
12/19/2017,15:20,112.43,112.52,112.43,112.48,9597
12/19/2017,15:25,112.48,112.48,112.4,112.44,9063
12/19/2017,15:30,112.45,112.53,112.45,112.48,25405
12/19/2017,15:35,112.48,112.56,112.48,112.56,9904
12/19/2017,15:40,112.56,112.57,112.47,112.47,9600
12/19/2017,15:45,112.48,112.48,112.43,112.43,15103
12/19/2017,15:50,112.44,112.44,112.41,112.43,24893
12/19/2017,15:55,112.43,112.48,112.41,112.43,60107
12/19/2017,16:00,112.44,112.44,112.44,112.44,115184
12/20/2017,09:30,112.51,112.82,112.51,112.76,33040
12/20/2017,09:35,112.76,112.96,112.72,112.72,8068
12/20/2017,09:40,112.75,112.87,112.72,112.87,4138
12/20/2017,09:45,112.87,112.88,112.72,112.85,9557
12/20/2017,09:50,112.83,112.96,112.78,112.96,9824
12/20/2017,09:55,112.97,113.19,112.95,113.19,11750
12/20/2017,10:00,113.2,113.29,113.2,113.26,8175
12/20/2017,10:05,113.21,113.23,113.11,113.13,6232
12/20/2017,10:10,113.14,113.22,113.11,113.15,7607
12/20/2017,10:15,113.15,113.24,113.11,113.16,4591
12/20/2017,10:20,113.13,113.17,113.11,113.11,7137
12/20/2017,10:25,113.11,113.16,113.11,113.13,5586
12/20/2017,10:30,113.12,113.22,113.11,113.22,7006
12/20/2017,10:35,113.22,113.22,112.97,113.02,7652
12/20/2017,10:40,113.02,113.06,112.95,112.95,5509
12/20/2017,10:45,112.92,113.03,112.92,113,2793
12/20/2017,10:50,113,113.01,112.94,112.94,2069
12/20/2017,10:55,112.96,112.97,112.83,112.89,3952
12/20/2017,11:00,112.86,112.89,112.78,112.87,9787
12/20/2017,11:05,112.9,112.95,112.88,112.95,3910
12/20/2017,11:10,112.94,112.99,112.9,112.96,3724
12/20/2017,11:15,112.97,112.99,112.91,112.92,9414
12/20/2017,11:20,112.9,113.05,112.9,113.05,5379
12/20/2017,11:25,113.08,113.08,112.99,113.05,4675
12/20/2017,11:30,113.06,113.06,112.95,113.02,3725
12/20/2017,11:35,112.97,113.05,112.95,112.95,4214
12/20/2017,11:40,112.95,113.02,112.95,112.96,6789
12/20/2017,11:45,112.96,112.99,112.89,112.98,7638
12/20/2017,11:50,112.97,112.98,112.89,112.95,3420
12/20/2017,11:55,112.95,113.02,112.93,112.97,4336
12/20/2017,12:00,112.97,113,112.96,112.98,4164
12/20/2017,12:05,112.93,112.93,112.88,112.91,2993
12/20/2017,12:10,112.91,112.93,112.83,112.9,2276
12/20/2017,12:15,112.9,112.91,112.82,112.84,1241
12/20/2017,12:20,112.87,112.94,112.87,112.94,3562
12/20/2017,12:25,112.91,112.99,112.91,112.98,2635
12/20/2017,12:30,112.98,113.01,112.96,112.98,6406
12/20/2017,12:35,112.96,112.97,112.82,112.83,8804
12/20/2017,12:40,112.83,112.87,112.83,112.87,1717
12/20/2017,12:45,112.87,112.93,112.81,112.83,6304
12/20/2017,12:50,112.83,112.83,112.76,112.77,4153
12/20/2017,12:55,112.72,112.77,112.69,112.72,7571
12/20/2017,13:00,112.72,112.75,112.68,112.68,4730
12/20/2017,13:05,112.68,112.7,112.66,112.66,7291
12/20/2017,13:10,112.69,112.72,112.66,112.67,7706
12/20/2017,13:15,112.68,112.69,112.66,112.68,11843
12/20/2017,13:20,112.68,112.69,112.66,112.68,2689
12/20/2017,13:25,112.69,112.76,112.66,112.67,16865
12/20/2017,13:30,112.7,112.72,112.66,112.66,14051
12/20/2017,13:35,112.66,112.68,112.65,112.66,10993
12/20/2017,13:40,112.65,112.68,112.65,112.66,3930
12/20/2017,13:45,112.66,112.67,112.65,112.67,4307
12/20/2017,13:50,112.68,112.68,112.59,112.62,5314
12/20/2017,13:55,112.62,112.63,112.58,112.61,4149
12/20/2017,14:00,112.62,112.67,112.59,112.66,5585
12/20/2017,14:05,112.63,112.63,112.59,112.63,3968
12/20/2017,14:10,112.63,112.64,112.59,112.62,2021
12/20/2017,14:15,112.62,112.63,112.51,112.54,6834
12/20/2017,14:20,112.54,112.54,112.4,112.44,4655
12/20/2017,14:25,112.42,112.42,112.25,112.34,6988
12/20/2017,14:30,112.37,112.56,112.37,112.55,6592
12/20/2017,14:35,112.56,112.58,112.5,112.55,6692
12/20/2017,14:40,112.56,112.59,112.52,112.53,6330
12/20/2017,14:45,112.53,112.55,112.51,112.54,5057
12/20/2017,14:50,112.54,112.6,112.5,112.52,18287
12/20/2017,14:55,112.53,112.55,112.51,112.53,9724
12/20/2017,15:00,112.54,112.55,112.5,112.53,12416
12/20/2017,15:05,112.53,112.53,112.45,112.45,3314
12/20/2017,15:10,112.44,112.52,112.44,112.52,7390
12/20/2017,15:15,112.52,112.55,112.48,112.53,4446
12/20/2017,15:20,112.51,112.53,112.49,112.51,3032
12/20/2017,15:25,112.51,112.53,112.46,112.47,6665
12/20/2017,15:30,112.47,112.49,112.45,112.49,6467
12/20/2017,15:35,112.49,112.49,112.43,112.44,8090
12/20/2017,15:40,112.44,112.51,112.44,112.5,6758
12/20/2017,15:45,112.47,112.49,112.4,112.46,12038
12/20/2017,15:50,112.45,112.45,112.4,112.43,14486
12/20/2017,15:55,112.42,112.44,112.26,112.3,54605
12/20/2017,16:00,112.3,112.3,112.3,112.3,126911
12/20/2017,16:55,112.3,112.3,112.3,112.3,401
12/21/2017,08:50,112.93,112.93,112.93,112.93,18205
12/21/2017,09:30,112.46,112.88,112.46,112.75,14596
12/21/2017,09:35,112.83,112.9,112.65,112.88,7505
12/21/2017,09:40,112.96,112.97,112.77,112.95,12692
12/21/2017,09:45,112.88,112.97,112.83,112.92,6708
12/21/2017,09:50,112.92,112.97,112.91,112.92,2767
12/21/2017,09:55,112.89,113,112.89,112.94,4138
12/21/2017,10:00,112.88,112.88,112.78,112.8,2895
12/21/2017,10:05,112.8,112.83,112.66,112.69,4655
12/21/2017,10:10,112.69,112.69,112.49,112.5,3003
12/21/2017,10:15,112.48,112.6,112.48,112.51,2981
12/21/2017,10:20,112.54,112.54,112.4,112.45,3414
12/21/2017,10:25,112.45,112.52,112.42,112.52,3452
12/21/2017,10:30,112.52,112.55,112.47,112.52,4465
12/21/2017,10:35,112.53,112.59,112.52,112.52,4275
12/21/2017,10:40,112.53,112.58,112.53,112.56,4756
12/21/2017,10:45,112.53,112.57,112.5,112.57,2690
12/21/2017,10:50,112.57,112.57,112.49,112.52,1551
12/21/2017,10:55,112.52,112.53,112.45,112.46,3237
12/21/2017,11:00,112.46,112.46,112.46,112.46,723
12/21/2017,11:05,112.46,112.59,112.44,112.53,14069
12/21/2017,11:10,112.53,112.59,112.52,112.56,3313
12/21/2017,11:15,112.56,112.6,112.56,112.6,2068
12/21/2017,11:20,112.62,112.69,112.62,112.66,3131
12/21/2017,11:25,112.63,112.64,112.6,112.62,3625
12/21/2017,11:30,112.64,112.67,112.55,112.59,1752
12/21/2017,11:35,112.62,112.67,112.56,112.61,3155
12/21/2017,11:40,112.61,112.62,112.57,112.59,2069
12/21/2017,11:45,112.63,112.63,112.46,112.47,1655
12/21/2017,11:50,112.52,112.52,112.39,112.44,3617
12/21/2017,11:55,112.44,112.49,112.44,112.44,2315
12/21/2017,12:00,112.42,112.44,112.31,112.37,1624
12/21/2017,12:05,112.35,112.38,112.34,112.38,1400
12/21/2017,12:10,112.4,112.42,112.32,112.34,1965
12/21/2017,12:15,112.37,112.37,112.34,112.34,1863
12/21/2017,12:20,112.34,112.34,112.3,112.32,1551
12/21/2017,12:25,112.31,112.31,112.26,112.26,1449
12/21/2017,12:30,112.29,112.3,112.26,112.26,1613
12/21/2017,12:35,112.26,112.27,112.19,112.19,1913
12/21/2017,12:40,112.19,112.27,112.19,112.25,2690
12/21/2017,12:45,112.25,112.28,112.21,112.21,1344
12/21/2017,12:50,112.22,112.27,112.21,112.25,3708
12/21/2017,12:55,112.25,112.34,112.25,112.28,3032
12/21/2017,13:00,112.29,112.36,112.29,112.36,1837
12/21/2017,13:05,112.37,112.4,112.32,112.32,3221
12/21/2017,13:10,112.31,112.38,112.3,112.38,2282
12/21/2017,13:15,112.38,112.46,112.37,112.44,2276
12/21/2017,13:20,112.46,112.46,112.46,112.46,932
12/21/2017,13:25,112.46,112.47,112.42,112.44,2276
12/21/2017,13:30,112.44,112.44,112.38,112.4,1551
12/21/2017,13:35,112.42,112.71,112.42,112.56,4589
12/21/2017,13:40,112.55,112.59,112.53,112.59,2969
12/21/2017,13:45,112.59,112.61,112.55,112.57,2044
12/21/2017,13:50,112.62,112.65,112.59,112.6,1448
12/21/2017,13:55,112.6,112.62,112.52,112.56,3738
12/21/2017,14:00,112.55,112.59,112.51,112.59,5380
12/21/2017,14:05,112.58,112.58,112.54,112.57,3364
12/21/2017,14:10,112.59,112.68,112.59,112.66,2689
12/21/2017,14:15,112.66,112.66,112.56,112.56,4255
12/21/2017,14:20,112.57,112.58,112.54,112.57,2171
12/21/2017,14:25,112.58,112.65,112.57,112.61,6001
12/21/2017,14:30,112.64,112.69,112.61,112.68,4339
12/21/2017,14:35,112.68,112.68,112.65,112.66,2504
12/21/2017,14:40,112.67,112.7,112.66,112.69,6587
12/21/2017,14:45,112.69,112.7,112.67,112.67,2260
12/21/2017,14:50,112.66,112.68,112.64,112.64,4212
12/21/2017,14:55,112.66,112.7,112.66,112.69,2893
12/21/2017,15:00,112.7,112.71,112.61,112.61,4347
12/21/2017,15:05,112.61,112.61,112.51,112.54,9153
12/21/2017,15:10,112.53,112.53,112.46,112.49,7433
12/21/2017,15:15,112.49,112.49,112.34,112.37,6964
12/21/2017,15:20,112.39,112.39,112.3,112.33,6894
12/21/2017,15:25,112.35,112.35,112.25,112.28,8972
12/21/2017,15:30,112.28,112.37,112.28,112.37,6411
12/21/2017,15:35,112.36,112.4,112.36,112.39,11898
12/21/2017,15:40,112.38,112.41,112.37,112.39,8486
12/21/2017,15:45,112.38,112.38,112.26,112.26,9160
12/21/2017,15:50,112.25,112.29,112.21,112.25,16599
12/21/2017,15:55,112.24,112.36,112.18,112.31,56742
12/21/2017,16:00,112.32,112.32,112.32,112.32,144219
12/21/2017,16:15,112.32,112.32,112.32,112.32,5733
12/22/2017,09:30,112.55,112.63,112.35,112.49,8056
12/22/2017,09:35,112.4,112.65,112.35,112.35,1902
12/22/2017,09:40,112.39,112.46,112.28,112.29,2536
12/22/2017,09:45,112.29,112.29,112.18,112.19,1344
12/22/2017,09:50,112.17,112.34,112.14,112.29,4330
12/22/2017,09:55,112.32,112.52,112.3,112.49,5901
12/22/2017,10:00,112.45,112.61,112.45,112.5,2593
12/22/2017,10:05,112.52,112.57,112.49,112.52,2275
12/22/2017,10:10,112.52,112.52,112.4,112.4,1862
12/22/2017,10:15,112.37,112.42,112.32,112.32,3310
12/22/2017,10:20,112.32,112.34,112.17,112.3,4452
12/22/2017,10:25,112.25,112.38,112.23,112.3,3418
12/22/2017,10:30,112.34,112.34,112.2,112.2,2638
12/22/2017,10:35,112.2,112.25,112.2,112.2,3231
12/22/2017,10:40,112.22,112.24,112.18,112.2,3613
12/22/2017,10:45,112.19,112.28,112.18,112.24,4625
12/22/2017,10:50,112.23,112.5,112.23,112.31,5863
12/22/2017,10:55,112.32,112.4,112.32,112.36,3289
12/22/2017,11:00,112.36,112.37,112.31,112.34,2792
12/22/2017,11:05,112.33,112.38,112.29,112.38,6037
12/22/2017,11:10,112.4,112.44,112.36,112.36,2058
12/22/2017,11:15,112.36,112.36,112.29,112.31,2218
12/22/2017,11:20,112.3,112.41,112.3,112.37,3297
12/22/2017,11:25,112.36,112.37,112.3,112.32,5818
12/22/2017,11:30,112.32,112.34,112.05,112.32,10569
12/22/2017,11:35,112.29,112.29,112.22,112.25,1759
12/22/2017,11:40,112.26,112.29,112.26,112.27,1655
12/22/2017,11:45,112.29,112.33,112.29,112.32,2275
12/22/2017,11:50,112.29,112.38,112.29,112.37,2284
12/22/2017,11:55,112.37,112.37,112.3,112.37,2959
12/22/2017,12:00,112.36,112.39,112.36,112.39,1584
12/22/2017,12:05,112.41,112.44,112.37,112.41,2067
12/22/2017,12:10,112.39,112.39,112.36,112.36,1241
12/22/2017,12:15,112.36,112.36,112.32,112.35,2171
12/22/2017,12:20,112.31,112.31,112.25,112.26,2830
12/22/2017,12:25,112.26,112.36,112.26,112.3,2636
12/22/2017,12:30,112.3,112.39,112.3,112.35,2640
12/22/2017,12:35,112.34,112.37,112.32,112.36,3589
12/22/2017,12:40,112.36,112.38,112.34,112.34,3201
12/22/2017,12:45,112.33,112.34,112.24,112.26,3906
12/22/2017,12:50,112.24,112.29,112.23,112.27,2069
12/22/2017,12:55,112.27,112.28,112.24,112.26,2069
12/22/2017,13:00,112.26,112.33,112.25,112.32,2587
12/22/2017,13:05,112.33,112.4,112.33,112.33,3441
12/22/2017,13:10,112.33,112.37,112.33,112.37,1415
12/22/2017,13:15,112.35,112.37,112.28,112.28,1631
12/22/2017,13:20,112.28,112.36,112.28,112.36,2648
12/22/2017,13:25,112.36,112.41,112.35,112.41,2027
12/22/2017,13:30,112.42,112.46,112.4,112.43,5965
12/22/2017,13:35,112.4,112.43,112.4,112.42,3035
12/22/2017,13:40,112.42,112.46,112.41,112.45,3993
12/22/2017,13:45,112.46,112.55,112.46,112.53,3001
12/22/2017,13:50,112.53,112.53,112.48,112.48,1033
12/22/2017,13:55,112.43,112.47,112.43,112.45,1450
12/22/2017,14:00,112.45,112.49,112.45,112.47,3401
12/22/2017,14:05,112.45,112.45,112.43,112.44,1732
12/22/2017,14:10,112.46,112.51,112.46,112.51,4121
12/22/2017,14:15,112.5,112.54,112.5,112.53,2691
12/22/2017,14:20,112.53,112.53,112.51,112.51,3226
12/22/2017,14:25,112.52,112.53,112.5,112.52,6362
12/22/2017,14:30,112.52,112.53,112.51,112.51,7465
12/22/2017,14:35,112.51,112.53,112.51,112.51,2861
12/22/2017,14:40,112.51,112.53,112.48,112.49,8711
12/22/2017,14:45,112.47,112.55,112.47,112.54,5036
12/22/2017,14:50,112.54,112.54,112.47,112.47,2069
12/22/2017,14:55,112.45,112.47,112.4,112.43,3108
12/22/2017,15:00,112.42,112.42,112.36,112.36,3219
12/22/2017,15:05,112.39,112.42,112.38,112.41,3207
12/22/2017,15:10,112.39,112.39,112.35,112.35,2626
12/22/2017,15:15,112.36,112.42,112.36,112.42,8098
12/22/2017,15:20,112.42,112.48,112.42,112.44,6269
12/22/2017,15:25,112.44,112.48,112.44,112.48,5299
12/22/2017,15:30,112.48,112.58,112.48,112.56,10091
12/22/2017,15:35,112.58,112.62,112.56,112.58,5518
12/22/2017,15:40,112.59,112.61,112.46,112.46,14131
12/22/2017,15:45,112.48,112.49,112.29,112.29,27736
12/22/2017,15:50,112.31,112.36,112.25,112.26,22863
12/22/2017,15:55,112.27,112.35,112.23,112.33,55915
12/22/2017,16:00,112.33,112.33,112.33,112.33,109621
12/22/2017,16:30,112.33,112.33,112.33,112.33,390
12/26/2017,09:30,112.53,112.53,112.22,112.24,5133
12/26/2017,09:35,112.27,112.49,112.27,112.29,3176
12/26/2017,09:40,112.28,112.43,112.28,112.39,5452
12/26/2017,09:45,112.34,112.42,112.27,112.3,7119
12/26/2017,09:50,112.36,112.49,112.36,112.41,3600
12/26/2017,09:55,112.38,112.39,112.32,112.37,5329
12/26/2017,10:00,112.37,112.4,112.35,112.39,13319
12/26/2017,10:05,112.39,112.42,112.37,112.4,5166
12/26/2017,10:10,112.4,112.41,112.28,112.31,3171
12/26/2017,10:15,112.3,112.3,112.24,112.26,4054
12/26/2017,10:20,112.24,112.3,112.24,112.29,2596
12/26/2017,10:25,112.27,112.3,112.27,112.28,2453
12/26/2017,10:30,112.28,112.29,112.26,112.26,2146
12/26/2017,10:35,112.3,112.31,112.25,112.31,8379
12/26/2017,10:40,112.33,112.35,112.33,112.35,3103
12/26/2017,10:45,112.33,112.34,112.31,112.32,1971
12/26/2017,10:50,112.32,112.32,112.27,112.27,2147
12/26/2017,10:55,112.24,112.3,112.24,112.3,2896
12/26/2017,11:00,112.3,112.31,112.3,112.31,2275
12/26/2017,11:05,112.32,112.34,112.32,112.32,2172
12/26/2017,11:10,112.32,112.37,112.29,112.35,3013
12/26/2017,11:15,112.36,112.4,112.36,112.36,1946
12/26/2017,11:20,112.36,112.39,112.33,112.39,1758
12/26/2017,11:25,112.41,112.47,112.38,112.47,3104
12/26/2017,11:30,112.47,112.49,112.45,112.49,2208
12/26/2017,11:35,112.49,112.5,112.49,112.49,1446
12/26/2017,11:40,112.5,112.51,112.45,112.46,1839
12/26/2017,11:45,112.47,112.49,112.46,112.47,4312
12/26/2017,11:50,112.47,112.5,112.43,112.43,2981
12/26/2017,11:55,112.39,112.45,112.39,112.44,7442
12/26/2017,12:00,112.43,112.57,112.43,112.56,4251
12/26/2017,12:05,112.54,112.59,112.53,112.58,2539
12/26/2017,12:10,112.58,112.58,112.53,112.53,2467
12/26/2017,12:15,112.52,112.52,112.49,112.51,1654
12/26/2017,12:20,112.5,112.56,112.5,112.56,2483
12/26/2017,12:25,112.56,112.56,112.47,112.52,4278
12/26/2017,12:30,112.52,112.54,112.51,112.52,5114
12/26/2017,12:35,112.52,112.52,112.49,112.51,620
12/26/2017,12:40,112.49,112.49,112.47,112.48,1292
12/26/2017,12:45,112.47,112.48,112.41,112.43,3213
12/26/2017,12:50,112.43,112.43,112.37,112.38,2578
12/26/2017,12:55,112.36,112.38,112.35,112.37,2536
12/26/2017,13:00,112.37,112.42,112.37,112.41,1242
12/26/2017,13:05,112.41,112.41,112.37,112.39,1798
12/26/2017,13:10,112.39,112.39,112.34,112.39,1448
12/26/2017,13:15,112.4,112.44,112.4,112.43,2574
12/26/2017,13:20,112.45,112.47,112.45,112.47,830
12/26/2017,13:25,112.47,112.47,112.43,112.45,2997
12/26/2017,13:30,112.45,112.45,112.36,112.36,3748
12/26/2017,13:35,112.36,112.39,112.36,112.36,1676
12/26/2017,13:40,112.37,112.37,112.36,112.36,2735
12/26/2017,13:45,112.32,112.35,112.3,112.32,1655
12/26/2017,13:50,112.32,112.35,112.31,112.34,2674
12/26/2017,13:55,112.34,112.36,112.31,112.31,2405
12/26/2017,14:00,112.31,112.43,112.3,112.39,15412
12/26/2017,14:05,112.45,112.45,112.34,112.34,3793
12/26/2017,14:10,112.37,112.37,112.32,112.37,18186
12/26/2017,14:15,112.36,112.39,112.34,112.38,17645
12/26/2017,14:20,112.36,112.39,112.36,112.38,3023
12/26/2017,14:25,112.38,112.41,112.36,112.4,4513
12/26/2017,14:30,112.4,112.4,112.37,112.38,1116
12/26/2017,14:35,112.39,112.41,112.38,112.39,4442
12/26/2017,14:40,112.41,112.47,112.41,112.44,3254
12/26/2017,14:45,112.44,112.45,112.41,112.42,3248
12/26/2017,14:50,112.42,112.43,112.39,112.43,702
12/26/2017,14:55,112.43,112.44,112.4,112.44,6198
12/26/2017,15:00,112.44,112.47,112.44,112.45,2998
12/26/2017,15:05,112.45,112.5,112.42,112.44,4339
12/26/2017,15:10,112.41,112.41,112.38,112.39,1292
12/26/2017,15:15,112.39,112.4,112.3,112.31,9516
12/26/2017,15:20,112.31,112.33,112.24,112.24,4031
12/26/2017,15:25,112.24,112.31,112.24,112.3,6207
12/26/2017,15:30,112.31,112.35,112.31,112.35,5973
12/26/2017,15:35,112.35,112.37,112.35,112.35,6365
12/26/2017,15:40,112.34,112.37,112.34,112.37,2976
12/26/2017,15:45,112.36,112.38,112.35,112.36,7678
12/26/2017,15:50,112.37,112.37,112.29,112.3,16179
12/26/2017,15:55,112.3,112.42,112.29,112.4,25960
12/26/2017,16:00,112.41,112.41,112.41,112.41,79352
12/27/2017,09:30,112.59,112.72,112.59,112.67,6459
12/27/2017,09:35,112.65,112.65,112.43,112.51,3193
12/27/2017,09:40,112.5,112.51,112.41,112.43,2479
12/27/2017,09:45,112.39,112.47,112.38,112.47,2793
12/27/2017,09:50,112.51,112.52,112.38,112.39,4682
12/27/2017,09:55,112.43,112.43,112.33,112.37,1966
12/27/2017,10:00,112.33,112.38,112.29,112.35,11758
12/27/2017,10:05,112.37,112.38,112.35,112.35,5632
12/27/2017,10:10,112.33,112.37,112.3,112.32,2794
12/27/2017,10:15,112.32,112.32,112.16,112.32,4583
12/27/2017,10:20,112.37,112.46,112.37,112.46,4366
12/27/2017,10:25,112.43,112.5,112.43,112.49,1655
12/27/2017,10:30,112.5,112.59,112.5,112.59,1655
12/27/2017,10:35,112.59,112.63,112.45,112.46,4566
12/27/2017,10:40,112.37,112.54,112.37,112.54,3395
12/27/2017,10:45,112.55,112.57,112.52,112.53,3414
12/27/2017,10:50,112.56,112.63,112.53,112.61,7596
12/27/2017,10:55,112.58,112.58,112.53,112.56,2846
12/27/2017,11:00,112.6,112.65,112.6,112.62,4349
12/27/2017,11:05,112.63,112.66,112.56,112.6,8077
12/27/2017,11:10,112.55,112.57,112.54,112.57,3377
12/27/2017,11:15,112.59,112.59,112.57,112.57,931
12/27/2017,11:20,112.63,112.69,112.6,112.69,4861
12/27/2017,11:25,112.68,112.68,112.64,112.65,2800
12/27/2017,11:30,112.65,112.65,112.58,112.58,4263
12/27/2017,11:35,112.6,112.61,112.53,112.53,2147
12/27/2017,11:40,112.53,112.57,112.53,112.57,4901
12/27/2017,11:45,112.6,112.67,112.6,112.67,2586
12/27/2017,11:50,112.67,112.75,112.66,112.75,4254
12/27/2017,11:55,112.71,112.72,112.69,112.72,1619
12/27/2017,12:00,112.71,112.71,112.58,112.58,1965
12/27/2017,12:05,112.62,112.66,112.62,112.66,2172
12/27/2017,12:10,112.67,112.67,112.66,112.66,1241
12/27/2017,12:15,112.63,112.63,112.54,112.57,7059
12/27/2017,12:20,112.6,112.65,112.54,112.54,5056
12/27/2017,12:25,112.53,112.57,112.53,112.57,3330
12/27/2017,12:30,112.55,112.59,112.54,112.54,413
12/27/2017,12:35,112.57,112.57,112.53,112.53,1664
12/27/2017,12:40,112.53,112.59,112.53,112.59,2802
12/27/2017,12:45,112.6,112.6,112.59,112.59,517
12/27/2017,12:50,112.57,112.58,112.53,112.53,1837
12/27/2017,12:55,112.53,112.53,112.46,112.48,4138
12/27/2017,13:00,112.48,112.48,112.44,112.44,4916
12/27/2017,13:05,112.48,112.56,112.48,112.56,1241
12/27/2017,13:10,112.54,112.55,112.51,112.53,2689
12/27/2017,13:15,112.51,112.53,112.5,112.53,2440
12/27/2017,13:20,112.53,112.56,112.53,112.56,4306
12/27/2017,13:25,112.56,112.56,112.53,112.53,3333
12/27/2017,13:30,112.54,112.58,112.53,112.53,7865
12/27/2017,13:35,112.49,112.55,112.48,112.55,7133
12/27/2017,13:40,112.57,112.59,112.57,112.59,2626
12/27/2017,13:45,112.59,112.6,112.56,112.57,2514
12/27/2017,13:50,112.57,112.6,112.57,112.59,1654
12/27/2017,13:55,112.58,112.66,112.58,112.64,3749
12/27/2017,14:00,112.64,112.66,112.64,112.65,2276
12/27/2017,14:05,112.65,112.7,112.65,112.68,7499
12/27/2017,14:10,112.69,112.71,112.57,112.57,4972
12/27/2017,14:15,112.57,112.57,112.53,112.55,2737
12/27/2017,14:20,112.55,112.55,112.53,112.55,1036
12/27/2017,14:25,112.56,112.65,112.54,112.65,5801
12/27/2017,14:30,112.65,112.66,112.65,112.65,2922
12/27/2017,14:35,112.62,112.63,112.6,112.63,1920
12/27/2017,14:40,112.62,112.62,112.59,112.59,1447
12/27/2017,14:45,112.59,112.6,112.57,112.57,2793
12/27/2017,14:50,112.57,112.61,112.53,112.58,6635
12/27/2017,14:55,112.58,112.59,112.55,112.56,2547
12/27/2017,15:00,112.57,112.6,112.57,112.59,3917
12/27/2017,15:05,112.59,112.59,112.54,112.54,4138
12/27/2017,15:10,112.54,112.55,112.52,112.53,3852
12/27/2017,15:15,112.53,112.54,112.51,112.53,7083
12/27/2017,15:20,112.54,112.58,112.5,112.54,8513
12/27/2017,15:25,112.55,112.55,112.47,112.53,3186
12/27/2017,15:30,112.54,112.61,112.54,112.61,4879
12/27/2017,15:35,112.61,112.61,112.53,112.54,9503
12/27/2017,15:40,112.54,112.61,112.52,112.56,5944
12/27/2017,15:45,112.57,112.61,112.52,112.56,7479
12/27/2017,15:50,112.56,112.62,112.56,112.56,11995
12/27/2017,15:55,112.56,112.62,112.52,112.59,45206
12/27/2017,16:00,112.62,112.62,112.62,112.62,111285
12/27/2017,16:35,112.62,112.62,112.62,112.62,4742
12/28/2017,09:30,112.81,112.81,112.58,112.58,5611
12/28/2017,09:35,112.58,112.67,112.56,112.61,3207
12/28/2017,09:40,112.61,112.61,112.44,112.44,5974
12/28/2017,09:45,112.44,112.52,112.37,112.46,5191
12/28/2017,09:50,112.47,112.5,112.43,112.44,5326
12/28/2017,09:55,112.49,112.66,112.44,112.65,4448
12/28/2017,10:00,112.66,112.73,112.63,112.66,3321
12/28/2017,10:05,112.68,112.79,112.66,112.76,3207
12/28/2017,10:10,112.76,112.76,112.66,112.69,4704
12/28/2017,10:15,112.62,112.75,112.6,112.68,4669
12/28/2017,10:20,112.67,112.67,112.62,112.62,1034
12/28/2017,10:25,112.63,112.72,112.59,112.68,3707
12/28/2017,10:30,112.7,112.75,112.7,112.73,3178
12/28/2017,10:35,112.69,112.72,112.67,112.68,3492
12/28/2017,10:40,112.68,112.72,112.66,112.68,2514
12/28/2017,10:45,112.71,112.87,112.71,112.77,3414
12/28/2017,10:50,112.77,112.8,112.75,112.75,1655
12/28/2017,10:55,112.76,112.79,112.76,112.78,1767
12/28/2017,11:00,112.72,112.79,112.72,112.74,1448
12/28/2017,11:05,112.75,112.86,112.74,112.74,6624
12/28/2017,11:10,112.75,112.88,112.75,112.83,2897
12/28/2017,11:15,112.85,112.88,112.85,112.85,2553
12/28/2017,11:20,112.9,112.9,112.84,112.89,2874
12/28/2017,11:25,112.86,112.89,112.82,112.82,3620
12/28/2017,11:30,112.87,112.9,112.85,112.88,2379
12/28/2017,11:35,112.87,112.93,112.87,112.91,10422
12/28/2017,11:40,112.91,112.98,112.9,112.98,2272
12/28/2017,11:45,112.98,112.98,112.94,112.96,1240
12/28/2017,11:50,112.96,112.99,112.95,112.95,1500
12/28/2017,11:55,112.97,113.01,112.93,112.96,3735
12/28/2017,12:00,112.96,112.97,112.89,112.89,1587
12/28/2017,12:05,112.91,112.91,112.79,112.84,2275
12/28/2017,12:10,112.83,112.83,112.75,112.75,2173
12/28/2017,12:15,112.75,112.81,112.75,112.77,2951
12/28/2017,12:20,112.81,112.83,112.77,112.83,1936
12/28/2017,12:25,112.84,112.9,112.84,112.88,2172
12/28/2017,12:30,112.86,112.89,112.86,112.88,1375
12/28/2017,12:35,112.89,112.91,112.82,112.83,4509
12/28/2017,12:40,112.83,112.89,112.81,112.89,3793
12/28/2017,12:45,112.85,112.89,112.84,112.85,1664
12/28/2017,12:50,112.84,112.84,112.8,112.81,1036
12/28/2017,12:55,112.85,112.86,112.81,112.84,2863
12/28/2017,13:00,112.85,112.86,112.82,112.85,1965
12/28/2017,13:05,112.85,112.86,112.84,112.85,1965
12/28/2017,13:10,112.86,112.87,112.84,112.85,2353
12/28/2017,13:15,112.85,112.86,112.83,112.86,2405
12/28/2017,13:20,112.85,112.87,112.83,112.84,6504
12/28/2017,13:25,112.84,112.85,112.83,112.84,2737
12/28/2017,13:30,112.82,112.85,112.82,112.84,2383
12/28/2017,13:35,112.85,112.86,112.83,112.86,2896
12/28/2017,13:40,112.87,112.87,112.85,112.86,3541
12/28/2017,13:45,112.86,112.89,112.86,112.86,3345
12/28/2017,13:50,112.87,112.89,112.84,112.87,3629
12/28/2017,13:55,112.88,112.91,112.88,112.9,3798
12/28/2017,14:00,112.9,112.95,112.9,112.93,2379
12/28/2017,14:05,112.94,112.95,112.9,112.92,5788
12/28/2017,14:10,112.9,112.91,112.87,112.88,3925
12/28/2017,14:15,112.89,112.89,112.87,112.88,2277
12/28/2017,14:20,112.89,112.93,112.87,112.92,2226
12/28/2017,14:25,112.92,112.95,112.92,112.95,3310
12/28/2017,14:30,112.97,112.98,112.95,112.95,3104
12/28/2017,14:35,112.94,112.95,112.91,112.94,3885
12/28/2017,14:40,112.94,112.97,112.94,112.97,930
12/28/2017,14:45,112.97,113.09,112.96,113.09,12042
12/28/2017,14:50,113.09,113.1,113.02,113.02,5521
12/28/2017,14:55,112.96,113.01,112.96,112.99,3204
12/28/2017,15:00,113.01,113.04,113,113.02,5162
12/28/2017,15:05,113.02,113.06,113.01,113.04,7449
12/28/2017,15:10,113.04,113.08,113.03,113.05,8956
12/28/2017,15:15,113.06,113.08,113.04,113.05,4981
12/28/2017,15:20,113.05,113.07,113.04,113.04,10047
12/28/2017,15:25,113.04,113.12,113.03,113.11,10640
12/28/2017,15:30,113.12,113.14,113.11,113.12,10214
12/28/2017,15:35,113.11,113.14,113.11,113.11,6722
12/28/2017,15:40,113.11,113.17,113.11,113.17,6197
12/28/2017,15:45,113.16,113.18,113.15,113.18,11173
12/28/2017,15:50,113.18,113.21,113.17,113.17,16508
12/28/2017,15:55,113.17,113.27,113.17,113.25,58261
12/28/2017,16:00,113.27,113.27,113.05,113.27,75268
12/28/2017,16:10,113.27,113.27,113.27,113.27,2166
12/29/2017,09:30,113.44,113.59,113.27,113.41,10554
12/29/2017,09:35,113.38,113.62,113.27,113.56,14073
12/29/2017,09:40,113.57,113.63,113.51,113.57,3268
12/29/2017,09:45,113.63,113.63,113.48,113.53,2795
12/29/2017,09:50,113.6,113.72,113.6,113.63,5673
12/29/2017,09:55,113.63,113.77,113.6,113.7,6011
12/29/2017,10:00,113.68,113.71,113.53,113.53,11957
12/29/2017,10:05,113.53,113.53,113.33,113.39,8853
12/29/2017,10:10,113.38,113.41,113.37,113.37,3870
12/29/2017,10:15,113.35,113.36,113.26,113.3,13992
12/29/2017,10:20,113.3,113.35,113.3,113.35,2924
12/29/2017,10:25,113.36,113.51,113.36,113.39,8332
12/29/2017,10:30,113.43,113.49,113.35,113.35,4553
12/29/2017,10:35,113.34,113.38,113.27,113.27,4446
12/29/2017,10:40,113.29,113.32,113.27,113.29,4033
12/29/2017,10:45,113.29,113.35,113.25,113.25,3017
12/29/2017,10:50,113.25,113.29,113.22,113.22,8712
12/29/2017,10:55,113.17,113.23,113.14,113.23,9767
12/29/2017,11:00,113.23,113.27,113.15,113.23,9248
12/29/2017,11:05,113.24,113.26,113.21,113.21,2898
12/29/2017,11:10,113.24,113.29,113.19,113.28,7684
12/29/2017,11:15,113.28,113.3,113.26,113.26,3726
12/29/2017,11:20,113.26,113.29,113.26,113.29,3724
12/29/2017,11:25,113.29,113.29,113.18,113.2,3207
12/29/2017,11:30,113.23,113.24,113.17,113.17,7445
12/29/2017,11:35,113.18,113.27,113.17,113.24,5945
12/29/2017,11:40,113.24,113.25,113.22,113.25,3819
12/29/2017,11:45,113.25,113.3,113.24,113.3,3520
12/29/2017,11:50,113.3,113.3,113.22,113.29,8385
12/29/2017,11:55,113.29,113.3,113.26,113.3,4868
12/29/2017,12:00,113.28,113.3,113.27,113.27,1489
12/29/2017,12:05,113.28,113.29,113.25,113.26,2847
12/29/2017,12:10,113.27,113.31,113.27,113.29,3210
12/29/2017,12:15,113.28,113.28,113.22,113.22,3746
12/29/2017,12:20,113.24,113.25,113.24,113.24,1241
12/29/2017,12:25,113.25,113.25,113.22,113.22,3224
12/29/2017,12:30,113.22,113.25,113.2,113.24,2080
12/29/2017,12:35,113.24,113.28,113.24,113.27,1295
12/29/2017,12:40,113.26,113.29,113.26,113.27,2714
12/29/2017,12:45,113.27,113.27,113.24,113.24,1780
12/29/2017,12:50,113.25,113.27,113.25,113.26,2623
12/29/2017,12:55,113.25,113.26,113.22,113.23,5880
12/29/2017,13:00,113.23,113.28,113.22,113.28,4428
12/29/2017,13:05,113.28,113.31,113.28,113.29,1654
12/29/2017,13:10,113.29,113.29,113.25,113.25,2469
12/29/2017,13:15,113.26,113.3,113.24,113.3,4175
12/29/2017,13:20,113.28,113.35,113.28,113.34,2913
12/29/2017,13:25,113.35,113.35,113.33,113.33,2221
12/29/2017,13:30,113.33,113.35,113.33,113.33,4232
12/29/2017,13:35,113.34,113.35,113.29,113.31,3026
12/29/2017,13:40,113.31,113.32,113.27,113.31,4620
12/29/2017,13:45,113.3,113.31,113.29,113.29,1962
12/29/2017,13:50,113.3,113.3,113.24,113.25,3203
12/29/2017,13:55,113.23,113.23,113.21,113.22,4110
12/29/2017,14:00,113.22,113.24,113.21,113.24,3654
12/29/2017,14:05,113.24,113.24,113.2,113.2,2741
12/29/2017,14:10,113.21,113.27,113.21,113.27,9541
12/29/2017,14:15,113.26,113.26,113.24,113.26,1515
12/29/2017,14:20,113.24,113.24,113.19,113.21,3918
12/29/2017,14:25,113.21,113.21,113.17,113.18,4819
12/29/2017,14:30,113.18,113.21,113.18,113.18,2811
12/29/2017,14:35,113.18,113.18,113.13,113.16,5316
12/29/2017,14:40,113.16,113.24,113.16,113.22,5500
12/29/2017,14:45,113.22,113.22,113.2,113.2,2586
12/29/2017,14:50,113.2,113.2,113.16,113.17,3114
12/29/2017,14:55,113.18,113.23,113.18,113.21,6784
12/29/2017,15:00,113.19,113.21,113.16,113.16,6197
12/29/2017,15:05,113.17,113.26,113.16,113.25,5791
12/29/2017,15:10,113.26,113.27,113.21,113.24,4412
12/29/2017,15:15,113.24,113.27,113.23,113.24,3945
12/29/2017,15:20,113.24,113.34,113.24,113.34,6618
12/29/2017,15:25,113.32,113.33,113.26,113.27,3510
12/29/2017,15:30,113.27,113.3,113.23,113.23,8520
12/29/2017,15:35,113.21,113.21,113.14,113.16,16629
12/29/2017,15:40,113.14,113.16,113.12,113.15,10584
12/29/2017,15:45,113.14,113.24,113.14,113.24,13809
12/29/2017,15:50,113.24,113.24,113.13,113.13,24873
12/29/2017,15:55,113.14,113.16,112.94,112.95,89596
12/29/2017,16:00,113.23,113.23,112.94,112.94,263019
01/02/2018,08:45,112.94,112.94,112.94,112.94,1322
01/02/2018,09:30,113.09,113.79,113.03,113.24,17584
01/02/2018,09:35,113.26,113.37,113.22,113.3,6081
01/02/2018,09:40,113.35,113.35,112.95,113.09,14418
01/02/2018,09:45,113.04,113.11,112.95,112.99,20390
01/02/2018,09:50,112.99,113.02,112.93,113,7965
01/02/2018,09:55,113.02,113.24,113.02,113.23,89414
01/02/2018,10:00,113.25,113.47,113.25,113.45,4837
01/02/2018,10:05,113.45,113.8,113.45,113.62,9511
01/02/2018,10:10,113.61,113.61,113.53,113.53,5933
01/02/2018,10:15,113.53,113.66,113.49,113.55,4604
01/02/2018,10:20,113.55,113.63,113.51,113.6,2689
01/02/2018,10:25,113.64,113.66,113.53,113.56,2787
01/02/2018,10:30,113.59,113.59,113.53,113.54,3338
01/02/2018,10:35,113.57,113.57,113.26,113.34,8301
01/02/2018,10:40,113.34,113.53,113.34,113.53,3998
01/02/2018,10:45,113.53,113.53,113.41,113.42,3457
01/02/2018,10:50,113.42,113.53,113.42,113.5,2737
01/02/2018,10:55,113.5,113.53,113.5,113.53,3079
01/02/2018,11:00,113.53,113.53,113.46,113.46,5275
01/02/2018,11:05,113.49,113.5,113.37,113.41,5078
01/02/2018,11:10,113.4,113.41,113.32,113.37,5402
01/02/2018,11:15,113.34,113.36,113.24,113.27,7763
01/02/2018,11:20,113.26,113.26,113.15,113.17,5068
01/02/2018,11:25,113.22,113.24,113.18,113.19,8013
01/02/2018,11:30,113.2,113.21,113.1,113.16,4127
01/02/2018,11:35,113.16,113.16,113.11,113.12,3517
01/02/2018,11:40,113.12,113.22,113.08,113.21,13191
01/02/2018,11:45,113.23,113.24,113.16,113.21,16512
01/02/2018,11:50,113.24,113.32,113.23,113.3,11339
01/02/2018,11:55,113.32,113.39,113.29,113.37,4930
01/02/2018,12:00,113.36,113.48,113.36,113.48,3236
01/02/2018,12:05,113.49,113.49,113.44,113.44,2499
01/02/2018,12:10,113.45,113.47,113.39,113.39,3688
01/02/2018,12:15,113.44,113.53,113.44,113.48,3812
01/02/2018,12:20,113.48,113.52,113.48,113.48,2327
01/02/2018,12:25,113.48,113.48,113.38,113.43,2569
01/02/2018,12:30,113.45,113.55,113.44,113.53,4281
01/02/2018,12:35,113.55,113.56,113.5,113.55,2985
01/02/2018,12:40,113.55,113.59,113.53,113.59,3390
01/02/2018,12:45,113.59,113.59,113.53,113.55,3920
01/02/2018,12:50,113.6,113.62,113.48,113.5,5221
01/02/2018,12:55,113.48,113.49,113.41,113.41,2789
01/02/2018,13:00,113.42,113.53,113.42,113.46,6414
01/02/2018,13:05,113.45,113.56,113.44,113.52,5614
01/02/2018,13:10,113.54,113.54,113.52,113.52,2225
01/02/2018,13:15,113.53,113.57,113.5,113.53,7344
01/02/2018,13:20,113.52,113.52,113.46,113.46,2566
01/02/2018,13:25,113.45,113.45,113.4,113.45,4441
01/02/2018,13:30,113.46,113.58,113.45,113.58,6051
01/02/2018,13:35,113.58,113.58,113.55,113.57,3096
01/02/2018,13:40,113.58,113.6,113.53,113.55,9081
01/02/2018,13:45,113.57,113.61,113.57,113.58,1901
01/02/2018,13:50,113.59,113.67,113.59,113.67,4413
01/02/2018,13:55,113.67,113.72,113.65,113.72,8610
01/02/2018,14:00,113.7,113.77,113.7,113.74,5393
01/02/2018,14:05,113.74,113.74,113.69,113.72,16713
01/02/2018,14:10,113.73,113.78,113.69,113.7,5992
01/02/2018,14:15,113.68,113.71,113.66,113.68,7619
01/02/2018,14:20,113.68,113.68,113.51,113.55,18992
01/02/2018,14:25,113.57,113.67,113.56,113.67,6544
01/02/2018,14:30,113.67,113.72,113.65,113.66,5782
01/02/2018,14:35,113.65,113.69,113.6,113.62,6520
01/02/2018,14:40,113.65,113.68,113.56,113.6,5585
01/02/2018,14:45,113.57,113.6,113.56,113.56,5436
01/02/2018,14:50,113.53,113.61,113.53,113.61,9969
01/02/2018,14:55,113.61,113.66,113.59,113.66,3414
01/02/2018,15:00,113.65,113.69,113.63,113.66,5731
01/02/2018,15:05,113.67,113.67,113.59,113.59,12413
01/02/2018,15:10,113.6,113.63,113.59,113.63,5847
01/02/2018,15:15,113.63,113.69,113.63,113.67,8590
01/02/2018,15:20,113.68,113.68,113.63,113.68,6475
01/02/2018,15:25,113.68,113.72,113.61,113.71,9688
01/02/2018,15:30,113.71,113.72,113.66,113.69,7027
01/02/2018,15:35,113.7,113.79,113.69,113.78,8713
01/02/2018,15:40,113.78,113.82,113.77,113.81,9159
01/02/2018,15:45,113.82,113.86,113.82,113.83,16558
01/02/2018,15:50,113.84,113.93,113.84,113.88,19197
01/02/2018,15:55,113.9,114.08,113.89,114.07,51101
01/02/2018,16:00,114.06,114.08,114.06,114.08,143177
01/02/2018,16:25,113.85,113.85,113.85,113.85,103
01/02/2018,16:35,114.08,114.08,114.08,114.08,360
01/02/2018,17:15,113.98,113.98,113.98,113.98,1034
01/03/2018,09:30,114.08,114.25,113.24,114.23,32518
01/03/2018,09:35,114.39,114.51,114.19,114.38,9127
01/03/2018,09:40,114.38,114.53,114.12,114.14,11315
01/03/2018,09:45,114.27,114.6,114.21,114.47,7113
01/03/2018,09:50,114.59,114.69,114.51,114.68,9078
01/03/2018,09:55,114.67,114.86,114.65,114.8,8636
01/03/2018,10:00,114.79,114.79,114.69,114.73,8744
01/03/2018,10:05,114.7,114.7,114.31,114.49,9971
01/03/2018,10:10,114.53,114.53,114.4,114.48,4392
01/03/2018,10:15,114.5,114.57,114.48,114.57,3446
01/03/2018,10:20,114.57,114.57,114.42,114.43,6323
01/03/2018,10:25,114.44,114.46,114.37,114.44,7662
01/03/2018,10:30,114.48,114.51,114.45,114.51,6165
01/03/2018,10:35,114.51,114.66,114.46,114.66,3827
01/03/2018,10:40,114.66,114.71,114.58,114.7,12492
01/03/2018,10:45,114.7,114.78,114.64,114.66,29464
01/03/2018,10:50,114.66,114.68,114.57,114.6,23584
01/03/2018,10:55,114.59,114.65,114.45,114.61,21079
01/03/2018,11:00,114.61,114.63,114.53,114.56,5200
01/03/2018,11:05,114.58,114.63,114.58,114.62,5923
01/03/2018,11:10,114.62,114.67,114.56,114.63,14253
01/03/2018,11:15,114.6,114.64,114.5,114.53,5175
01/03/2018,11:20,114.52,114.56,114.5,114.51,6647
01/03/2018,11:25,114.51,114.54,114.48,114.48,2524
01/03/2018,11:30,114.52,114.52,114.44,114.44,7230
01/03/2018,11:35,114.44,114.45,114.35,114.35,3877
01/03/2018,11:40,114.34,114.34,114.25,114.25,2896
01/03/2018,11:45,114.28,114.41,114.25,114.36,14944
01/03/2018,11:50,114.37,114.4,114.2,114.2,6277
01/03/2018,11:55,114.2,114.24,114.18,114.21,3955
01/03/2018,12:00,114.23,114.29,114.16,114.29,6259
01/03/2018,12:05,114.29,114.35,114.24,114.35,5483
01/03/2018,12:10,114.36,114.36,114.29,114.36,3309
01/03/2018,12:15,114.36,114.37,114.27,114.34,4480
01/03/2018,12:20,114.35,114.35,114.27,114.33,1759
01/03/2018,12:25,114.29,114.35,114.27,114.34,4804
01/03/2018,12:30,114.34,114.38,114.3,114.35,3552
01/03/2018,12:35,114.37,114.44,114.36,114.44,4173
01/03/2018,12:40,114.44,114.44,114.4,114.43,3673
01/03/2018,12:45,114.43,114.49,114.4,114.49,3744
01/03/2018,12:50,114.49,114.62,114.48,114.59,9173
01/03/2018,12:55,114.63,114.63,114.51,114.52,4099
01/03/2018,13:00,114.52,114.56,114.49,114.56,4720
01/03/2018,13:05,114.57,114.58,114.48,114.51,6497
01/03/2018,13:10,114.54,114.56,114.51,114.51,1461
01/03/2018,13:15,114.53,114.53,114.48,114.5,4012
01/03/2018,13:20,114.51,114.51,114.46,114.5,2704
01/03/2018,13:25,114.47,114.5,114.35,114.35,8078
01/03/2018,13:30,114.34,114.35,114.27,114.34,4876
01/03/2018,13:35,114.36,114.43,114.33,114.33,6701
01/03/2018,13:40,114.33,114.36,114.31,114.35,4634
01/03/2018,13:45,114.33,114.39,114.3,114.36,4219
01/03/2018,13:50,114.4,114.4,114.16,114.17,3598
01/03/2018,13:55,114.18,114.18,114.12,114.18,4744
01/03/2018,14:00,114.19,114.21,114.11,114.11,10641
01/03/2018,14:05,114.11,114.24,114.1,114.21,6683
01/03/2018,14:10,114.27,114.3,114.21,114.25,2276
01/03/2018,14:15,114.25,114.25,114.16,114.17,7655
01/03/2018,14:20,114.18,114.21,114.15,114.18,3877
01/03/2018,14:25,114.18,114.19,114.07,114.07,8425
01/03/2018,14:30,114.07,114.15,114.04,114.1,22979
01/03/2018,14:35,114.13,114.36,114.13,114.28,6274
01/03/2018,14:40,114.31,114.42,114.28,114.34,8476
01/03/2018,14:45,114.36,114.36,114.23,114.27,3018
01/03/2018,14:50,114.23,114.26,114.23,114.26,1990
01/03/2018,14:55,114.26,114.31,114.24,114.29,5847
01/03/2018,15:00,114.29,114.3,114.22,114.25,8552
01/03/2018,15:05,114.26,114.35,114.24,114.32,8272
01/03/2018,15:10,114.3,114.34,114.29,114.29,6798
01/03/2018,15:15,114.31,114.4,114.31,114.4,5980
01/03/2018,15:20,114.4,114.4,114.3,114.32,14076
01/03/2018,15:25,114.34,114.34,114.27,114.31,11441
01/03/2018,15:30,114.33,114.41,114.29,114.4,9306
01/03/2018,15:35,114.4,114.45,114.39,114.41,8079
01/03/2018,15:40,114.43,114.47,114.37,114.4,15264
01/03/2018,15:45,114.42,114.46,114.35,114.37,17453
01/03/2018,15:50,114.37,114.39,114.31,114.33,14339
01/03/2018,15:55,114.33,114.35,114.17,114.25,75758
01/03/2018,16:00,114.26,114.26,114.26,114.26,122336
01/04/2018,07:45,114.27,114.27,114.27,114.27,103
01/04/2018,09:30,114.71,115.33,114.71,115.26,30565
01/04/2018,09:35,115.14,115.45,115.14,115.4,5730
01/04/2018,09:40,115.38,115.56,115.27,115.55,8043
01/04/2018,09:45,115.52,115.54,115.24,115.4,7358
01/04/2018,09:50,115.36,115.52,115.36,115.5,7334
01/04/2018,09:55,115.52,115.6,115.5,115.51,3015
01/04/2018,10:00,115.53,115.55,115.4,115.55,5074
01/04/2018,10:05,115.57,115.66,115.52,115.56,7217
01/04/2018,10:10,115.58,115.66,115.56,115.66,4238
01/04/2018,10:15,115.66,115.66,115.4,115.4,5236
01/04/2018,10:20,115.41,115.58,115.41,115.56,4471
01/04/2018,10:25,115.57,115.67,115.56,115.67,10884
01/04/2018,10:30,115.68,115.77,115.66,115.69,10914
01/04/2018,10:35,115.72,115.78,115.68,115.72,9490
01/04/2018,10:40,115.7,115.74,115.52,115.56,22958
01/04/2018,10:45,115.53,115.55,115.13,115.13,11782
01/04/2018,10:50,115.1,115.13,114.9,114.93,7210
01/04/2018,10:55,114.91,114.91,114.6,114.63,25336
01/04/2018,11:00,114.71,114.82,114.68,114.74,4345
01/04/2018,11:05,114.74,114.76,114.48,114.55,9586
01/04/2018,11:10,114.54,114.73,114.54,114.72,8060
01/04/2018,11:15,114.74,114.74,114.44,114.5,11734
01/04/2018,11:20,114.49,114.5,114.36,114.44,13273
01/04/2018,11:25,114.46,114.55,114.36,114.46,19633
01/04/2018,11:30,114.53,114.65,114.49,114.53,12470
01/04/2018,11:35,114.53,114.55,114.41,114.47,4747
01/04/2018,11:40,114.55,114.55,114.36,114.37,8883
01/04/2018,11:45,114.36,114.36,114.26,114.36,7513
01/04/2018,11:50,114.36,114.36,114.27,114.32,10350
01/04/2018,11:55,114.29,114.33,114.23,114.33,10697
01/04/2018,12:00,114.37,114.38,114.3,114.3,10095
01/04/2018,12:05,114.31,114.36,114.31,114.36,11194
01/04/2018,12:10,114.37,114.41,114.33,114.34,6711
01/04/2018,12:15,114.34,114.39,114.24,114.25,15162
01/04/2018,12:20,114.23,114.24,114.19,114.21,5879
01/04/2018,12:25,114.24,114.29,114.11,114.2,37111
01/04/2018,12:30,114.2,114.36,114.15,114.29,10008
01/04/2018,12:35,114.27,114.38,114.23,114.23,9161
01/04/2018,12:40,114.22,114.37,114.22,114.34,7979
01/04/2018,12:45,114.33,114.36,114.25,114.3,8403
01/04/2018,12:50,114.31,114.31,114.23,114.28,5637
01/04/2018,12:55,114.28,114.28,114.2,114.22,4038
01/04/2018,13:00,114.23,114.28,114.2,114.27,5194
01/04/2018,13:05,114.27,114.3,114.26,114.28,7772
01/04/2018,13:10,114.28,114.28,114.2,114.22,7822
01/04/2018,13:15,114.22,114.22,114.19,114.19,2555
01/04/2018,13:20,114.19,114.2,114.11,114.16,5768
01/04/2018,13:25,114.16,114.25,114.16,114.19,4418
01/04/2018,13:30,114.16,114.21,114.16,114.19,3521
01/04/2018,13:35,114.17,114.24,114.17,114.23,5372
01/04/2018,13:40,114.21,114.24,114.2,114.22,6455
01/04/2018,13:45,114.21,114.22,114.14,114.2,7599
01/04/2018,13:50,114.22,114.22,114.14,114.16,6477
01/04/2018,13:55,114.15,114.16,114,114.02,9210
01/04/2018,14:00,114.03,114.15,114.03,114.12,5176
01/04/2018,14:05,114.13,114.15,114.11,114.12,3400
01/04/2018,14:10,114.12,114.13,114.09,114.1,7368
01/04/2018,14:15,114.11,114.19,114.1,114.12,12005
01/04/2018,14:20,114.11,114.16,114.11,114.15,5369
01/04/2018,14:25,114.15,114.16,114.11,114.11,5260
01/04/2018,14:30,114.11,114.17,114.1,114.17,4821
01/04/2018,14:35,114.18,114.19,114.09,114.12,9348
01/04/2018,14:40,114.1,114.1,114.06,114.08,5576
01/04/2018,14:45,114.07,114.11,114.07,114.09,5148
01/04/2018,14:50,114.09,114.09,114,114.04,4734
01/04/2018,14:55,114.04,114.06,113.99,113.99,6018
01/04/2018,15:00,114,114.09,113.99,114.05,7982
01/04/2018,15:05,114.04,114.04,113.9,113.98,9370
01/04/2018,15:10,113.96,113.98,113.94,113.94,6333
01/04/2018,15:15,113.95,113.96,113.91,113.93,8248
01/04/2018,15:20,113.92,113.92,113.73,113.74,15856
01/04/2018,15:25,113.75,113.79,113.66,113.68,16504
01/04/2018,15:30,113.7,113.75,113.67,113.69,17197
01/04/2018,15:35,113.69,113.72,113.55,113.56,24581
01/04/2018,15:40,113.57,113.63,113.56,113.57,17606
01/04/2018,15:45,113.57,113.6,113.51,113.55,31413
01/04/2018,15:50,113.55,113.55,113.42,113.53,33237
01/04/2018,15:55,113.53,113.57,113.48,113.55,56421
01/04/2018,16:00,114.32,114.32,113.56,113.56,219414
01/04/2018,16:35,113.56,113.56,113.56,113.56,2351
01/04/2018,18:05,114.09,114.09,114.09,114.09,259
01/05/2018,09:30,113.82,114.2,113.82,114.2,31308
01/05/2018,09:35,114.32,114.43,114.21,114.32,12235
01/05/2018,09:40,114.31,114.48,114.19,114.19,8991
01/05/2018,09:45,114.29,114.4,113.96,114.06,12712
01/05/2018,09:50,113.96,114.24,113.96,114.17,7320
01/05/2018,09:55,114.18,114.34,113.58,113.61,10604
01/05/2018,10:00,113.62,114.13,113.61,114.06,12696
01/05/2018,10:05,114.1,114.18,114.1,114.16,6831
01/05/2018,10:10,114.18,114.18,114.1,114.11,4550
01/05/2018,10:15,114.16,114.16,114.09,114.11,8120
01/05/2018,10:20,114.14,114.16,114,114,9864
01/05/2018,10:25,114.03,114.03,113.93,113.96,6261
01/05/2018,10:30,113.98,114.07,113.94,114.07,4114
01/05/2018,10:35,114.07,114.08,114.02,114.06,6089
01/05/2018,10:40,114.05,114.15,113.98,114.14,9025
01/05/2018,10:45,114.14,114.15,114,114.02,6490
01/05/2018,10:50,114.04,114.08,114,114,6073
01/05/2018,10:55,113.99,114.04,113.99,114,4425
01/05/2018,11:00,113.99,114.04,113.95,114.03,5625
01/05/2018,11:05,114.06,114.11,114.05,114.08,5358
01/05/2018,11:10,114.08,114.13,114,114,9080
01/05/2018,11:15,114.04,114.13,114.02,114.07,5103
01/05/2018,11:20,114.07,114.14,114.05,114.12,4125
01/05/2018,11:25,114.13,114.26,114.12,114.19,6869
01/05/2018,11:30,114.17,114.17,114.12,114.13,3833
01/05/2018,11:35,114.15,114.16,114.09,114.16,3522
01/05/2018,11:40,114.18,114.24,114.03,114.14,6440
01/05/2018,11:45,114.14,114.24,114.11,114.11,5980
01/05/2018,11:50,114.11,114.16,114.04,114.15,3259
01/05/2018,11:55,114.22,114.22,114.12,114.14,2410
01/05/2018,12:00,114.19,114.19,114.05,114.05,4303
01/05/2018,12:05,114.06,114.09,114.03,114.09,1911
01/05/2018,12:10,114.07,114.16,114.04,114.11,4297
01/05/2018,12:15,114.13,114.21,114.1,114.21,2263
01/05/2018,12:20,114.21,114.21,114.05,114.05,4438
01/05/2018,12:25,114.04,114.08,114.01,114.06,5016
01/05/2018,12:30,114.08,114.14,114.07,114.13,1965
01/05/2018,12:35,114.1,114.1,113.99,113.99,2053
01/05/2018,12:40,114.04,114.04,113.97,113.97,5562
01/05/2018,12:45,113.98,113.98,113.92,113.92,2326
01/05/2018,12:50,113.95,113.95,113.87,113.9,3515
01/05/2018,12:55,113.9,113.97,113.83,113.92,2926
01/05/2018,13:00,113.97,114.07,113.97,114.05,2834
01/05/2018,13:05,114.08,114.08,113.98,114.06,4344
01/05/2018,13:10,114.05,114.08,113.99,114.08,10974
01/05/2018,13:15,114.06,114.11,114.05,114.11,4345
01/05/2018,13:20,114.13,114.17,114.11,114.17,1794
01/05/2018,13:25,114.17,114.17,114.13,114.15,2976
01/05/2018,13:30,114.15,114.21,114.15,114.21,1267
01/05/2018,13:35,114.21,114.21,114.17,114.2,3707
01/05/2018,13:40,114.22,114.29,114.22,114.27,9069
01/05/2018,13:45,114.29,114.32,114.24,114.24,5275
01/05/2018,13:50,114.22,114.27,114.21,114.24,3964
01/05/2018,13:55,114.22,114.3,114.22,114.3,4976
01/05/2018,14:00,114.31,114.31,114.25,114.28,3421
01/05/2018,14:05,114.3,114.31,114.19,114.22,5664
01/05/2018,14:10,114.21,114.31,114.21,114.31,5392
01/05/2018,14:15,114.32,114.35,114.32,114.33,3193
01/05/2018,14:20,114.32,114.35,114.31,114.35,3484
01/05/2018,14:25,114.35,114.44,114.35,114.44,4305
01/05/2018,14:30,114.45,114.56,114.45,114.53,13819
01/05/2018,14:35,114.52,114.58,114.46,114.58,31850
01/05/2018,14:40,114.59,114.6,114.53,114.53,5826
01/05/2018,14:45,114.5,114.57,114.44,114.49,13487
01/05/2018,14:50,114.5,114.56,114.5,114.52,36160
01/05/2018,14:55,114.51,114.52,114.45,114.45,14363
01/05/2018,15:00,114.47,114.48,114.4,114.45,13880
01/05/2018,15:05,114.46,114.64,114.46,114.64,9324
01/05/2018,15:10,114.65,114.65,114.57,114.6,11227
01/05/2018,15:15,114.6,114.64,114.59,114.64,5606
01/05/2018,15:20,114.65,114.66,114.57,114.64,12618
01/05/2018,15:25,114.64,114.84,114.62,114.67,18862
01/05/2018,15:30,114.67,114.75,114.67,114.75,8426
01/05/2018,15:35,114.75,114.83,114.75,114.8,10890
01/05/2018,15:40,114.81,114.85,114.77,114.81,17128
01/05/2018,15:45,114.84,114.96,114.81,114.89,19800
01/05/2018,15:50,114.91,114.94,114.89,114.92,15700
01/05/2018,15:55,114.92,115.09,114.86,114.95,109932
01/05/2018,16:00,114.92,114.97,114.92,114.97,125439
01/05/2018,16:30,114.97,114.97,114.97,114.97,1720
01/08/2018,09:30,115.04,115.09,114.78,114.94,11488
01/08/2018,09:35,114.99,114.99,114.69,114.73,6772
01/08/2018,09:40,114.72,114.88,114.57,114.6,11455
01/08/2018,09:45,114.62,114.92,114.61,114.92,5910
01/08/2018,09:50,114.93,114.93,114.66,114.68,2797
01/08/2018,09:55,114.66,114.8,114.65,114.75,6731
01/08/2018,10:00,114.79,114.85,114.73,114.82,14585
01/08/2018,10:05,114.82,114.92,114.79,114.92,26197
01/08/2018,10:10,114.92,115.16,114.89,115.09,14676
01/08/2018,10:15,115.07,115.09,114.96,115.01,8905
01/08/2018,10:20,115.01,115.22,115.01,115.08,4758
01/08/2018,10:25,115.1,115.11,114.87,114.87,10655
01/08/2018,10:30,114.88,114.97,114.88,114.96,4862
01/08/2018,10:35,114.95,114.95,114.9,114.9,8488
01/08/2018,10:40,114.91,114.91,114.7,114.76,8962
01/08/2018,10:45,114.76,114.82,114.73,114.73,3296
01/08/2018,10:50,114.77,114.86,114.73,114.73,4387
01/08/2018,10:55,114.73,114.73,114.57,114.6,7950
01/08/2018,11:00,114.55,114.68,114.55,114.68,5437
01/08/2018,11:05,114.67,114.72,114.59,114.59,9785
01/08/2018,11:10,114.58,114.73,114.57,114.71,16880
01/08/2018,11:15,114.71,114.71,114.66,114.69,2530
01/08/2018,11:20,114.69,114.72,114.61,114.61,12468
01/08/2018,11:25,114.63,114.71,114.61,114.69,4384
01/08/2018,11:30,114.69,114.81,114.69,114.73,7329
01/08/2018,11:35,114.73,114.73,114.67,114.69,2804
01/08/2018,11:40,114.69,114.81,114.69,114.8,3960
01/08/2018,11:45,114.82,114.82,114.77,114.79,6968
01/08/2018,11:50,114.74,114.76,114.73,114.73,1035
01/08/2018,11:55,114.7,114.82,114.66,114.76,9930
01/08/2018,12:00,114.79,114.89,114.78,114.79,13203
01/08/2018,12:05,114.81,114.84,114.74,114.8,6930
01/08/2018,12:10,114.8,114.81,114.7,114.8,21107
01/08/2018,12:15,114.79,114.89,114.79,114.86,3387
01/08/2018,12:20,114.87,114.94,114.86,114.88,5712
01/08/2018,12:25,114.86,114.86,114.78,114.8,11103
01/08/2018,12:30,114.8,114.81,114.7,114.72,31824
01/08/2018,12:35,114.71,114.74,114.63,114.66,30412
01/08/2018,12:40,114.67,114.73,114.66,114.7,24220
01/08/2018,12:45,114.71,114.72,114.66,114.66,7404
01/08/2018,12:50,114.69,114.69,114.61,114.67,16039
01/08/2018,12:55,114.69,114.72,114.67,114.7,6099
01/08/2018,13:00,114.71,114.74,114.69,114.73,7902
01/08/2018,13:05,114.74,114.86,114.65,114.7,38257
01/08/2018,13:10,114.69,114.74,114.67,114.67,10203
01/08/2018,13:15,114.69,114.81,114.68,114.76,2844
01/08/2018,13:20,114.8,114.82,114.67,114.67,11930
01/08/2018,13:25,114.67,114.69,114.62,114.69,17073
01/08/2018,13:30,114.69,114.76,114.65,114.65,9200
01/08/2018,13:35,114.65,114.72,114.63,114.66,6235
01/08/2018,13:40,114.65,114.71,114.62,114.71,3723
01/08/2018,13:45,114.69,114.73,114.68,114.7,6494
01/08/2018,13:50,114.69,114.69,114.58,114.58,8643
01/08/2018,13:55,114.6,114.69,114.6,114.69,14229
01/08/2018,14:00,114.68,114.7,114.67,114.7,5608
01/08/2018,14:05,114.7,114.7,114.66,114.66,5390
01/08/2018,14:10,114.67,114.69,114.62,114.69,6761
01/08/2018,14:15,114.69,114.69,114.66,114.69,2820
01/08/2018,14:20,114.69,114.69,114.66,114.69,6525
01/08/2018,14:25,114.69,114.73,114.66,114.73,4694
01/08/2018,14:30,114.73,114.79,114.68,114.69,18832
01/08/2018,14:35,114.69,114.7,114.66,114.69,9518
01/08/2018,14:40,114.7,114.7,114.68,114.69,5460
01/08/2018,14:45,114.69,114.71,114.67,114.7,4357
01/08/2018,14:50,114.7,114.71,114.66,114.69,4500
01/08/2018,14:55,114.69,114.73,114.69,114.71,10479
01/08/2018,15:00,114.71,114.78,114.71,114.75,6858
01/08/2018,15:05,114.76,114.78,114.66,114.66,17775
01/08/2018,15:10,114.68,114.69,114.67,114.68,2192
01/08/2018,15:15,114.67,114.71,114.66,114.69,6883
01/08/2018,15:20,114.69,114.71,114.65,114.65,10078
01/08/2018,15:25,114.65,114.66,114.62,114.62,3104
01/08/2018,15:30,114.62,114.66,114.6,114.66,10846
01/08/2018,15:35,114.68,114.73,114.66,114.68,39029
01/08/2018,15:40,114.68,114.72,114.66,114.67,30764
01/08/2018,15:45,114.66,114.73,114.63,114.67,29293
01/08/2018,15:50,114.69,114.7,114.63,114.65,19529
01/08/2018,15:55,114.65,114.72,114.61,114.7,49401
01/08/2018,16:00,114.77,114.77,114.77,114.77,317930
01/09/2018,09:30,115.09,115.18,114.88,115.14,14547
01/09/2018,09:35,115.14,115.21,114.81,114.86,11865
01/09/2018,09:40,114.98,115.18,114.98,115.04,10682
01/09/2018,09:45,115.02,115.06,114.85,115.06,11410
01/09/2018,09:50,115.08,115.08,114.92,114.94,3936
01/09/2018,09:55,114.93,114.93,114.79,114.81,5486
01/09/2018,10:00,114.85,114.86,114.69,114.81,17043
01/09/2018,10:05,114.78,114.81,114.69,114.75,7086
01/09/2018,10:10,114.74,114.84,114.73,114.83,5122
01/09/2018,10:15,114.82,114.87,114.8,114.86,4906
01/09/2018,10:20,114.86,114.96,114.86,114.95,7106
01/09/2018,10:25,114.95,114.97,114.94,114.95,3989
01/09/2018,10:30,114.96,114.97,114.86,114.92,5563
01/09/2018,10:35,114.93,114.97,114.9,114.9,6317
01/09/2018,10:40,114.91,114.91,114.87,114.89,5506
01/09/2018,10:45,114.89,114.89,114.8,114.88,6237
01/09/2018,10:50,114.88,114.88,114.78,114.79,7575
01/09/2018,10:55,114.85,114.86,114.8,114.8,3468
01/09/2018,11:00,114.79,114.87,114.79,114.85,3012
01/09/2018,11:05,114.82,114.84,114.8,114.8,6206
01/09/2018,11:10,114.81,114.98,114.8,114.94,9102
01/09/2018,11:15,114.94,115.11,114.94,115.07,8141
01/09/2018,11:20,115.07,115.1,115.03,115.05,7502
01/09/2018,11:25,115.04,115.18,115.01,115.01,9262
01/09/2018,11:30,114.98,115.02,114.93,114.98,10498
01/09/2018,11:35,114.97,114.98,114.92,114.92,11020
01/09/2018,11:40,114.92,114.97,114.92,114.95,4881
01/09/2018,11:45,114.95,114.96,114.93,114.96,3620
01/09/2018,11:50,114.98,114.98,114.93,114.97,3330
01/09/2018,11:55,114.98,114.98,114.88,114.88,4435
01/09/2018,12:00,114.85,114.93,114.85,114.9,11496
01/09/2018,12:05,114.9,114.91,114.81,114.81,6282
01/09/2018,12:10,114.8,114.8,114.7,114.7,3993
01/09/2018,12:15,114.7,114.7,114.49,114.5,7636
01/09/2018,12:20,114.48,114.55,114.45,114.47,5851
01/09/2018,12:25,114.48,114.51,114.4,114.46,7306
01/09/2018,12:30,114.46,114.52,114.46,114.52,6321
01/09/2018,12:35,114.52,114.58,114.52,114.57,5026
01/09/2018,12:40,114.57,114.63,114.57,114.61,4485
01/09/2018,12:45,114.59,114.67,114.58,114.64,4552
01/09/2018,12:50,114.65,114.67,114.63,114.63,3307
01/09/2018,12:55,114.64,114.65,114.6,114.6,4169
01/09/2018,13:00,114.6,114.65,114.6,114.65,4778
01/09/2018,13:05,114.65,114.7,114.64,114.7,6511
01/09/2018,13:10,114.73,114.8,114.62,114.62,7315
01/09/2018,13:15,114.6,114.61,114.56,114.6,7587
01/09/2018,13:20,114.61,114.66,114.6,114.63,6062
01/09/2018,13:25,114.63,114.63,114.57,114.61,3556
01/09/2018,13:30,114.63,114.65,114.61,114.63,4125
01/09/2018,13:35,114.61,114.65,114.61,114.62,3517
01/09/2018,13:40,114.61,114.62,114.58,114.58,3590
01/09/2018,13:45,114.6,114.6,114.58,114.59,4483
01/09/2018,13:50,114.59,114.59,114.56,114.59,6456
01/09/2018,13:55,114.6,114.63,114.57,114.58,6374
01/09/2018,14:00,114.6,114.66,114.6,114.65,6717
01/09/2018,14:05,114.67,114.72,114.63,114.66,12064
01/09/2018,14:10,114.66,114.67,114.61,114.61,8267
01/09/2018,14:15,114.6,114.6,114.56,114.59,10637
01/09/2018,14:20,114.59,114.62,114.57,114.61,6844
01/09/2018,14:25,114.61,114.61,114.52,114.53,7786
01/09/2018,14:30,114.53,114.53,114.46,114.51,5609
01/09/2018,14:35,114.51,114.52,114.49,114.52,5205
01/09/2018,14:40,114.5,114.51,114.42,114.44,7669
01/09/2018,14:45,114.44,114.46,114.41,114.45,8705
01/09/2018,14:50,114.46,114.51,114.46,114.49,5750
01/09/2018,14:55,114.5,114.5,114.42,114.43,8160
01/09/2018,15:00,114.43,114.51,114.42,114.51,9176
01/09/2018,15:05,114.5,114.51,114.4,114.4,9410
01/09/2018,15:10,114.43,114.44,114.41,114.41,7247
01/09/2018,15:15,114.41,114.43,114.4,114.4,10935
01/09/2018,15:20,114.39,114.39,114.35,114.35,5914
01/09/2018,15:25,114.35,114.43,114.3,114.31,12916
01/09/2018,15:30,114.3,114.41,114.3,114.41,16288
01/09/2018,15:35,114.41,114.56,114.39,114.54,11311
01/09/2018,15:40,114.56,114.56,114.42,114.43,16706
01/09/2018,15:45,114.44,114.49,114.36,114.36,23493
01/09/2018,15:50,114.36,114.38,114.28,114.32,32445
01/09/2018,15:55,114.32,114.36,114.22,114.3,69288
01/09/2018,16:00,114.29,114.29,114.29,114.29,222333
01/09/2018,16:40,114.08,114.08,114.08,114.08,259
01/10/2018,07:00,113.83,113.83,113.83,113.83,103
01/10/2018,09:30,114.05,114.37,114.05,114.26,15927
01/10/2018,09:35,114.32,114.4,114.07,114.11,8360
01/10/2018,09:40,114.08,114.13,113.82,113.82,4755
01/10/2018,09:45,113.87,113.87,113.62,113.73,3788
01/10/2018,09:50,113.68,113.68,113.38,113.39,7483
01/10/2018,09:55,113.4,113.77,113.4,113.75,7061
01/10/2018,10:00,113.75,113.75,113.56,113.69,22775
01/10/2018,10:05,113.68,113.79,113.63,113.73,22077
01/10/2018,10:10,113.72,113.89,113.67,113.84,10153
01/10/2018,10:15,113.87,114.04,113.87,114.03,6725
01/10/2018,10:20,114,114.05,113.97,114,6263
01/10/2018,10:25,113.97,113.98,113.89,113.9,4305
01/10/2018,10:30,113.9,113.97,113.87,113.93,7539
01/10/2018,10:35,113.94,113.99,113.89,113.89,8751
01/10/2018,10:40,113.9,113.98,113.86,113.89,5922
01/10/2018,10:45,113.92,113.93,113.82,113.82,4706
01/10/2018,10:50,113.8,113.8,113.3,113.36,15837
01/10/2018,10:55,113.36,113.47,113.34,113.38,15627
01/10/2018,11:00,113.38,113.4,113.21,113.24,24026
01/10/2018,11:05,113.25,113.3,113.18,113.24,13758
01/10/2018,11:10,113.26,113.26,113.15,113.24,11661
01/10/2018,11:15,113.28,113.43,113.23,113.42,12401
01/10/2018,11:20,113.41,113.49,113.34,113.36,13510
01/10/2018,11:25,113.3,113.44,113.24,113.44,13781
01/10/2018,11:30,113.41,113.52,113.41,113.52,4274
01/10/2018,11:35,113.52,113.53,113.37,113.45,10677
01/10/2018,11:40,113.45,113.45,113.39,113.42,2846
01/10/2018,11:45,113.45,113.46,113.41,113.45,5697
01/10/2018,11:50,113.45,113.58,113.45,113.55,7049
01/10/2018,11:55,113.57,113.57,113.37,113.38,5119
01/10/2018,12:00,113.39,113.41,113.36,113.38,5323
01/10/2018,12:05,113.37,113.4,113.34,113.38,4505
01/10/2018,12:10,113.36,113.41,113.34,113.36,9297
01/10/2018,12:15,113.35,113.42,113.35,113.38,12014
01/10/2018,12:20,113.37,113.38,113.32,113.34,13674
01/10/2018,12:25,113.34,113.34,113.22,113.24,7189
01/10/2018,12:30,113.21,113.24,113.17,113.2,8480
01/10/2018,12:35,113.21,113.22,113.17,113.18,11305
01/10/2018,12:40,113.18,113.31,113.17,113.31,8172
01/10/2018,12:45,113.32,113.38,113.3,113.37,5018
01/10/2018,12:50,113.36,113.4,113.35,113.37,8537
01/10/2018,12:55,113.35,113.35,113.27,113.33,11497
01/10/2018,13:00,113.37,113.4,113.35,113.38,10170
01/10/2018,13:05,113.41,113.43,113.41,113.41,2586
01/10/2018,13:10,113.41,113.44,113.4,113.44,11266
01/10/2018,13:15,113.44,113.44,113.34,113.34,7014
01/10/2018,13:20,113.34,113.36,113.26,113.3,7692
01/10/2018,13:25,113.31,113.34,113.3,113.32,3266
01/10/2018,13:30,113.32,113.33,113.29,113.31,7058
01/10/2018,13:35,113.31,113.34,113.29,113.29,4781
01/10/2018,13:40,113.29,113.29,113.21,113.22,6168
01/10/2018,13:45,113.22,113.23,113.2,113.22,4279
01/10/2018,13:50,113.22,113.28,113.22,113.28,5012
01/10/2018,13:55,113.3,113.3,113.26,113.26,6620
01/10/2018,14:00,113.27,113.34,113.27,113.34,6263
01/10/2018,14:05,113.37,113.38,113.26,113.26,5436
01/10/2018,14:10,113.24,113.25,113.18,113.18,4252
01/10/2018,14:15,113.18,113.24,113.14,113.15,8729
01/10/2018,14:20,113.12,113.13,113.09,113.1,5507
01/10/2018,14:25,113.12,113.17,113.08,113.11,8448
01/10/2018,14:30,113.12,113.21,113.1,113.18,5740
01/10/2018,14:35,113.2,113.23,113.17,113.17,5009
01/10/2018,14:40,113.15,113.18,113.11,113.11,6068
01/10/2018,14:45,113.1,113.16,113.1,113.15,7528
01/10/2018,14:50,113.17,113.19,113.09,113.1,4408
01/10/2018,14:55,113.06,113.07,112.93,112.93,5844
01/10/2018,15:00,112.95,112.99,112.94,112.98,4184
01/10/2018,15:05,112.97,113,112.63,112.8,51490
01/10/2018,15:10,112.79,112.8,112.74,112.76,11052
01/10/2018,15:15,112.76,112.76,112.62,112.63,14004
01/10/2018,15:20,112.62,112.62,112.54,112.59,14712
01/10/2018,15:25,112.58,112.59,112.44,112.47,17266
01/10/2018,15:30,112.47,112.6,112.44,112.54,55040
01/10/2018,15:35,112.54,112.68,112.54,112.67,23620
01/10/2018,15:40,112.66,112.67,112.56,112.57,24842
01/10/2018,15:45,112.57,112.6,112.56,112.58,35173
01/10/2018,15:50,112.59,112.67,112.58,112.65,35979
01/10/2018,15:55,112.65,112.82,112.64,112.71,92673
01/10/2018,16:00,112.73,112.73,112.73,112.73,224730
01/10/2018,16:05,112.73,112.73,112.73,112.73,103
01/11/2018,09:30,112.81,113.06,112.75,112.92,24989
01/11/2018,09:35,112.94,113.02,112.68,112.69,11521
01/11/2018,09:40,112.74,112.8,112.48,112.51,12413
01/11/2018,09:45,112.56,112.69,112.3,112.3,42868
01/11/2018,09:50,112.29,112.74,112.26,112.71,11455
01/11/2018,09:55,112.75,112.8,112.63,112.63,11469
01/11/2018,10:00,112.64,112.64,112.42,112.43,20188
01/11/2018,10:05,112.45,113.03,112.44,112.95,34716
01/11/2018,10:10,112.94,113.18,112.93,113.08,42802
01/11/2018,10:15,113.04,113.22,112.99,113.17,26631
01/11/2018,10:20,113.15,113.28,113.08,113.08,7360
01/11/2018,10:25,113.07,113.22,113.01,113.22,7786
01/11/2018,10:30,113.22,113.28,113.07,113.07,8719
01/11/2018,10:35,113.06,113.18,112.99,113.09,30379
01/11/2018,10:40,113.09,113.24,113.04,113.14,18218
01/11/2018,10:45,113.13,113.13,113,113.03,6238
01/11/2018,10:50,113.04,113.17,113.02,113.1,8078
01/11/2018,10:55,113.1,113.15,112.97,113.07,11937
01/11/2018,11:00,113.08,113.27,113.08,113.15,28836
01/11/2018,11:05,113.21,113.33,113.2,113.29,10227
01/11/2018,11:10,113.29,113.31,113.23,113.23,27665
01/11/2018,11:15,113.23,113.3,113.17,113.3,13765
01/11/2018,11:20,113.33,113.35,113.18,113.25,16046
01/11/2018,11:25,113.25,113.34,113.18,113.18,25042
01/11/2018,11:30,113.21,113.24,113.18,113.24,5459
01/11/2018,11:35,113.27,113.3,113.22,113.3,6595
01/11/2018,11:40,113.35,113.37,113.24,113.24,5487
01/11/2018,11:45,113.2,113.26,113.16,113.23,8483
01/11/2018,11:50,113.21,113.29,113.21,113.29,5033
01/11/2018,11:55,113.3,113.32,113.25,113.25,5774
01/11/2018,12:00,113.25,113.38,113.25,113.33,6857
01/11/2018,12:05,113.32,113.42,113.32,113.42,6470
01/11/2018,12:10,113.42,113.5,113.42,113.49,4565
01/11/2018,12:15,113.49,113.55,113.48,113.53,10140
01/11/2018,12:20,113.54,113.54,113.43,113.48,3878
01/11/2018,12:25,113.46,113.61,113.45,113.55,9167
01/11/2018,12:30,113.57,113.62,113.54,113.59,6363
01/11/2018,12:35,113.56,113.74,113.56,113.65,17523
01/11/2018,12:40,113.65,113.74,113.65,113.68,5070
01/11/2018,12:45,113.7,113.75,113.68,113.68,2503
01/11/2018,12:50,113.68,113.73,113.63,113.63,4791
01/11/2018,12:55,113.66,113.69,113.65,113.68,3763
01/11/2018,13:00,113.68,113.7,113.65,113.66,2400
01/11/2018,13:05,113.69,113.69,113.61,113.62,4378
01/11/2018,13:10,113.64,113.73,113.63,113.7,3687
01/11/2018,13:15,113.69,113.71,113.65,113.71,5513
01/11/2018,13:20,113.71,113.73,113.67,113.67,2851
01/11/2018,13:25,113.69,113.75,113.68,113.73,5375
01/11/2018,13:30,113.76,113.76,113.62,113.62,3930
01/11/2018,13:35,113.63,113.66,113.62,113.62,4853
01/11/2018,13:40,113.63,113.64,113.58,113.58,2759
01/11/2018,13:45,113.62,113.66,113.59,113.62,4212
01/11/2018,13:50,113.63,113.65,113.61,113.62,4874
01/11/2018,13:55,113.61,113.62,113.58,113.61,4177
01/11/2018,14:00,113.61,113.63,113.6,113.61,4211
01/11/2018,14:05,113.62,113.62,113.55,113.59,12571
01/11/2018,14:10,113.62,113.64,113.59,113.6,5798
01/11/2018,14:15,113.6,113.61,113.57,113.58,7685
01/11/2018,14:20,113.57,113.59,113.54,113.57,4860
01/11/2018,14:25,113.59,113.66,113.59,113.63,4746
01/11/2018,14:30,113.6,113.65,113.6,113.63,3124
01/11/2018,14:35,113.65,113.65,113.62,113.62,5818
01/11/2018,14:40,113.61,113.63,113.59,113.6,8687
01/11/2018,14:45,113.6,113.65,113.57,113.65,7305
01/11/2018,14:50,113.63,113.82,113.63,113.82,4884
01/11/2018,14:55,113.81,113.84,113.8,113.82,5868
01/11/2018,15:00,113.82,113.82,113.77,113.81,7477
01/11/2018,15:05,113.82,113.88,113.81,113.86,6672
01/11/2018,15:10,113.86,113.92,113.85,113.92,6933
01/11/2018,15:15,113.92,113.92,113.84,113.9,7960
01/11/2018,15:20,113.92,113.94,113.87,113.9,8532
01/11/2018,15:25,113.9,113.91,113.79,113.79,11049
01/11/2018,15:30,113.79,113.8,113.66,113.67,17498
01/11/2018,15:35,113.68,113.75,113.67,113.67,19341
01/11/2018,15:40,113.67,113.68,113.5,113.51,29723
01/11/2018,15:45,113.51,113.6,113.44,113.54,29405
01/11/2018,15:50,113.54,113.6,113.53,113.6,39113
01/11/2018,15:55,113.6,113.66,113.48,113.64,102248
01/11/2018,16:00,113.66,113.66,113.66,113.66,122384
01/12/2018,09:30,114.09,114.39,113.85,113.86,74654
01/12/2018,09:35,113.84,114.01,113.82,113.96,38781
01/12/2018,09:40,113.92,114.18,113.76,114.18,5871
01/12/2018,09:45,114.07,114.37,114.06,114.35,6201
01/12/2018,09:50,114.48,114.52,114.35,114.52,7334
01/12/2018,09:55,114.54,114.55,114.29,114.29,18980
01/12/2018,10:00,114.29,114.33,114.17,114.25,16544
01/12/2018,10:05,114.21,114.32,114.16,114.2,19817
01/12/2018,10:10,114.23,114.32,114.16,114.31,9425
01/12/2018,10:15,114.31,114.47,114.15,114.15,20717
01/12/2018,10:20,114.19,114.27,114.08,114.08,6823
01/12/2018,10:25,114.13,114.16,114.08,114.16,3569
01/12/2018,10:30,114.16,114.26,114.1,114.23,5866
01/12/2018,10:35,114.26,114.41,114.25,114.39,7545
01/12/2018,10:40,114.4,114.46,114.38,114.4,5577
01/12/2018,10:45,114.4,114.52,114.4,114.52,5430
01/12/2018,10:50,114.52,114.61,114.49,114.61,6466
01/12/2018,10:55,114.64,114.65,114.49,114.54,8750
01/12/2018,11:00,114.53,114.53,114.38,114.4,7759
01/12/2018,11:05,114.4,114.4,114.22,114.27,5407
01/12/2018,11:10,114.21,114.28,114.21,114.25,3307
01/12/2018,11:15,114.26,114.31,114.15,114.17,15924
01/12/2018,11:20,114.17,114.19,114.12,114.16,6567
01/12/2018,11:25,114.17,114.24,114.17,114.24,5482
01/12/2018,11:30,114.3,114.39,114.22,114.35,11842
01/12/2018,11:35,114.3,114.34,114.3,114.34,2792
01/12/2018,11:40,114.34,114.34,114.25,114.28,5143
01/12/2018,11:45,114.26,114.27,114.22,114.25,6560
01/12/2018,11:50,114.26,114.26,114.18,114.21,4199
01/12/2018,11:55,114.21,114.25,114.19,114.25,3358
01/12/2018,12:00,114.25,114.25,113.98,113.98,18431
01/12/2018,12:05,113.98,114.05,113.84,113.85,11084
01/12/2018,12:10,113.88,113.94,113.82,113.87,10560
01/12/2018,12:15,113.87,114.03,113.87,113.94,6593
01/12/2018,12:20,113.94,113.98,113.87,113.87,8245
01/12/2018,12:25,113.93,113.98,113.88,113.88,6001
01/12/2018,12:30,113.92,113.97,113.89,113.91,31446
01/12/2018,12:35,113.92,113.94,113.89,113.91,6130
01/12/2018,12:40,113.91,113.91,113.83,113.83,6156
01/12/2018,12:45,113.84,113.85,113.82,113.85,2947
01/12/2018,12:50,113.82,113.98,113.81,113.86,19842
01/12/2018,12:55,113.89,114.15,113.87,114.09,22901
01/12/2018,13:00,114.09,114.13,113.99,113.99,6147
01/12/2018,13:05,113.97,113.98,113.92,113.96,3170
01/12/2018,13:10,113.99,114.04,113.97,114.04,2662
01/12/2018,13:15,114.04,114.07,113.98,114.07,5104
01/12/2018,13:20,114.06,114.09,114.04,114.04,4263
01/12/2018,13:25,114.02,114.06,114.02,114.05,2595
01/12/2018,13:30,114.08,114.09,114.01,114.01,6778
01/12/2018,13:35,114.01,114.01,113.95,113.96,3000
01/12/2018,13:40,113.99,114.04,113.96,114.04,4214
01/12/2018,13:45,114.05,114.12,114.05,114.09,11513
01/12/2018,13:50,114.08,114.15,114.06,114.11,11494
01/12/2018,13:55,114.11,114.12,114.09,114.12,3620
01/12/2018,14:00,114.11,114.15,114.08,114.14,6706
01/12/2018,14:05,114.15,114.17,114.11,114.15,11072
01/12/2018,14:10,114.16,114.23,114.16,114.21,7013
01/12/2018,14:15,114.18,114.31,114.18,114.31,11818
01/12/2018,14:20,114.31,114.37,114.3,114.34,11425
01/12/2018,14:25,114.31,114.35,114.26,114.31,6970
01/12/2018,14:30,114.31,114.34,114.26,114.28,8599
01/12/2018,14:35,114.28,114.28,114.17,114.21,9680
01/12/2018,14:40,114.2,114.2,114.08,114.12,7364
01/12/2018,14:45,114.11,114.11,114.07,114.09,6621
01/12/2018,14:50,114.08,114.11,114.08,114.11,4952
01/12/2018,14:55,114.11,114.11,114,114.02,7861
01/12/2018,15:00,114.03,114.16,114.03,114.13,5954
01/12/2018,15:05,114.16,114.22,114.16,114.2,7410
01/12/2018,15:10,114.16,114.16,114.05,114.08,6897
01/12/2018,15:15,114.08,114.14,114.07,114.12,7437
01/12/2018,15:20,114.14,114.27,114.14,114.25,12070
01/12/2018,15:25,114.25,114.28,114.2,114.2,8519
01/12/2018,15:30,114.23,114.24,114.18,114.19,10063
01/12/2018,15:35,114.19,114.23,114.16,114.23,12971
01/12/2018,15:40,114.23,114.25,114.23,114.24,15940
01/12/2018,15:45,114.25,114.54,114.25,114.27,83308
01/12/2018,15:50,114.26,114.3,114.19,114.24,55301
01/12/2018,15:55,114.25,114.28,114.1,114.21,129413
01/12/2018,16:00,114.24,114.24,114.24,114.24,103521
01/16/2018,09:30,114.62,114.8,114.57,114.69,22025
01/16/2018,09:35,114.69,114.74,114.53,114.62,10131
01/16/2018,09:40,114.69,114.77,114.63,114.71,10723
01/16/2018,09:45,114.7,115.01,114.69,114.92,35027
01/16/2018,09:50,114.92,115.03,114.87,114.87,14566
01/16/2018,09:55,114.85,114.98,114.85,114.93,22220
01/16/2018,10:00,114.93,114.93,114.6,114.63,26209
01/16/2018,10:05,114.62,114.66,114.51,114.61,11930
01/16/2018,10:10,114.61,114.61,114.33,114.33,17910
01/16/2018,10:15,114.36,114.36,114.13,114.13,24172
01/16/2018,10:20,114.07,114.08,113.95,113.99,10537
01/16/2018,10:25,114.02,114.03,113.77,113.81,19869
01/16/2018,10:30,113.86,113.86,113.62,113.68,27989
01/16/2018,10:35,113.66,113.7,113.45,113.69,11734
01/16/2018,10:40,113.64,113.67,113.55,113.55,8357
01/16/2018,10:45,113.57,113.62,113.49,113.55,9708
01/16/2018,10:50,113.53,113.58,113.48,113.52,12074
01/16/2018,10:55,113.52,113.52,113.38,113.44,16926
01/16/2018,11:00,113.44,113.52,113.42,113.52,15522
01/16/2018,11:05,113.52,113.52,113.35,113.44,22124
01/16/2018,11:10,113.46,113.55,113.43,113.53,19453
01/16/2018,11:15,113.53,113.71,113.51,113.66,14341
01/16/2018,11:20,113.68,113.82,113.66,113.82,16094
01/16/2018,11:25,113.76,113.88,113.76,113.88,9685
01/16/2018,11:30,113.91,113.91,113.82,113.87,7427
01/16/2018,11:35,113.9,113.91,113.77,113.83,9991
01/16/2018,11:40,113.82,113.82,113.54,113.54,13610
01/16/2018,11:45,113.59,113.59,113.36,113.46,53912
01/16/2018,11:50,113.46,113.6,113.39,113.6,15616
01/16/2018,11:55,113.62,113.63,113.48,113.54,4913
01/16/2018,12:00,113.56,113.68,113.56,113.68,5156
01/16/2018,12:05,113.67,113.71,113.55,113.63,7241
01/16/2018,12:10,113.62,113.72,113.61,113.7,2739
01/16/2018,12:15,113.7,113.71,113.58,113.61,6019
01/16/2018,12:20,113.61,113.61,113.36,113.38,8417
01/16/2018,12:25,113.36,113.47,113.34,113.45,10885
01/16/2018,12:30,113.46,113.59,113.46,113.53,10556
01/16/2018,12:35,113.53,113.66,113.52,113.52,10086
01/16/2018,12:40,113.56,113.62,113.42,113.42,8286
01/16/2018,12:45,113.44,113.87,113.4,113.86,29419
01/16/2018,12:50,113.88,113.98,113.77,113.82,22077
01/16/2018,12:55,113.85,114.05,113.85,113.91,21998
01/16/2018,13:00,113.95,113.95,113.76,113.85,21149
01/16/2018,13:05,113.85,113.87,113.76,113.86,15792
01/16/2018,13:10,113.84,113.96,113.73,113.84,14765
01/16/2018,13:15,113.8,113.85,113.68,113.75,12442
01/16/2018,13:20,113.81,113.82,113.49,113.55,22203
01/16/2018,13:25,113.55,113.74,113.54,113.71,11645
01/16/2018,13:30,113.67,113.67,113.47,113.47,27748
01/16/2018,13:35,113.47,113.57,113.31,113.53,27632
01/16/2018,13:40,113.55,113.64,113.53,113.53,14846
01/16/2018,13:45,113.56,113.62,113.3,113.44,17382
01/16/2018,13:50,113.46,113.48,113.27,113.34,29362
01/16/2018,13:55,113.34,113.34,113.23,113.24,16771
01/16/2018,14:00,113.23,113.29,113.08,113.15,20807
01/16/2018,14:05,113.15,113.4,113.15,113.28,12271
01/16/2018,14:10,113.25,113.26,113.06,113.09,28671
01/16/2018,14:15,113.09,113.18,112.97,113.11,88505
01/16/2018,14:20,113.15,113.15,112.88,112.95,143052
01/16/2018,14:25,112.94,113.09,112.93,112.93,68516
01/16/2018,14:30,112.92,113.01,112.87,112.88,14466
01/16/2018,14:35,112.91,112.95,112.68,112.68,20254
01/16/2018,14:40,112.71,112.76,112.4,112.43,14379
01/16/2018,14:45,112.4,112.57,112.31,112.44,20117
01/16/2018,14:50,112.48,112.58,112.44,112.56,11381
01/16/2018,14:55,112.58,112.72,112.55,112.71,18076
01/16/2018,15:00,112.71,112.8,112.69,112.8,15635
01/16/2018,15:05,112.81,112.93,112.79,112.91,36266
01/16/2018,15:10,112.91,112.91,112.73,112.73,24904
01/16/2018,15:15,112.75,112.75,112.55,112.69,28232
01/16/2018,15:20,112.71,112.85,112.7,112.72,16733
01/16/2018,15:25,112.69,112.92,112.67,112.92,17811
01/16/2018,15:30,112.91,112.91,112.71,112.77,18679
01/16/2018,15:35,112.81,112.9,112.77,112.82,23005
01/16/2018,15:40,112.82,112.95,112.75,112.93,48345
01/16/2018,15:45,112.94,113.04,112.91,112.95,35813
01/16/2018,15:50,112.98,113,112.8,112.8,35172
01/16/2018,15:55,112.82,112.86,112.65,112.72,179132
01/16/2018,16:00,112.76,112.76,112.76,112.76,246365
01/17/2018,09:30,112.72,113.15,112.31,112.31,31204
01/17/2018,09:35,112.36,112.96,112.16,112.31,19980
01/17/2018,09:40,112.34,112.37,111.42,111.6,68334
01/17/2018,09:45,111.64,112,111.42,111.8,31222
01/17/2018,09:50,111.78,111.97,111.14,111.2,85066
01/17/2018,09:55,111.39,111.66,111.12,111.61,22939
01/17/2018,10:00,111.59,111.84,111.27,111.67,30255
01/17/2018,10:05,111.7,111.9,111.52,111.9,27432
01/17/2018,10:10,111.9,112.1,111.83,111.87,39066
01/17/2018,10:15,111.89,111.92,111.7,111.78,26235
01/17/2018,10:20,111.77,111.87,111.47,111.7,19210
01/17/2018,10:25,111.68,111.78,111.51,111.56,14801
01/17/2018,10:30,111.59,111.8,111.52,111.78,30009
01/17/2018,10:35,111.8,111.8,111.49,111.54,46324
01/17/2018,10:40,111.57,111.73,111.56,111.66,79775
01/17/2018,10:45,111.71,111.82,111.63,111.67,21075
01/17/2018,10:50,111.65,111.67,111.18,111.2,77347
01/17/2018,10:55,111.23,111.33,110.93,111.18,121319
01/17/2018,11:00,111.2,111.28,111.05,111.25,33978
01/17/2018,11:05,111.28,111.33,111.08,111.13,72258
01/17/2018,11:10,111.18,111.25,111.04,111.13,105273
01/17/2018,11:15,111.13,111.17,111.07,111.09,50792
01/17/2018,11:20,111.09,111.37,111.09,111.17,87712
01/17/2018,11:25,111.18,111.28,111.13,111.18,57601
01/17/2018,11:30,111.18,111.29,111.14,111.22,65489
01/17/2018,11:35,111.22,111.26,111.19,111.23,53891
01/17/2018,11:40,111.23,111.25,111.01,111.08,47889
01/17/2018,11:45,111.08,111.59,110.97,111.59,60264
01/17/2018,11:50,111.61,111.66,111.5,111.57,19143
01/17/2018,11:55,111.56,111.64,111.46,111.48,16130
01/17/2018,12:00,111.48,111.5,111.32,111.37,74122
01/17/2018,12:05,111.37,111.4,111.12,111.15,24508
01/17/2018,12:10,111.18,111.18,110.91,111.04,18927
01/17/2018,12:15,111.06,111.15,110.95,111.12,22334
01/17/2018,12:20,111.13,111.2,111.04,111.13,16086
01/17/2018,12:25,111.12,111.19,111.1,111.15,11427
01/17/2018,12:30,111.15,111.36,111.13,111.33,34374
01/17/2018,12:35,111.36,111.54,111.31,111.51,15208
01/17/2018,12:40,111.51,111.52,111.29,111.34,50118
01/17/2018,12:45,111.36,111.38,111.27,111.36,9796
01/17/2018,12:50,111.32,111.42,111.11,111.11,47885
01/17/2018,12:55,111.16,111.26,111.11,111.23,38492
01/17/2018,13:00,111.24,111.44,111.22,111.43,24232
01/17/2018,13:05,111.37,111.59,111.37,111.42,37634
01/17/2018,13:10,111.43,111.49,111.35,111.36,20982
01/17/2018,13:15,111.4,111.44,111.32,111.34,7350
01/17/2018,13:20,111.34,111.46,111.26,111.43,13036
01/17/2018,13:25,111.43,111.48,111.33,111.37,14522
01/17/2018,13:30,111.33,111.37,111.25,111.26,23847
01/17/2018,13:35,111.29,111.29,111.12,111.27,40654
01/17/2018,13:40,111.28,111.29,111.14,111.16,38297
01/17/2018,13:45,111.16,111.22,111.13,111.21,22507
01/17/2018,13:50,111.18,111.2,111.14,111.14,15460
01/17/2018,13:55,111.16,111.19,111.15,111.17,19006
01/17/2018,14:00,111.18,111.31,111.14,111.29,36061
01/17/2018,14:05,111.27,111.33,111.26,111.27,25584
01/17/2018,14:10,111.27,111.29,111.2,111.21,25539
01/17/2018,14:15,111.2,111.2,111.14,111.14,26261
01/17/2018,14:20,111.14,111.2,111.11,111.17,26448
01/17/2018,14:25,111.15,111.16,110.84,111.16,47237
01/17/2018,14:30,111.16,111.16,111.03,111.06,30030
01/17/2018,14:35,111.07,111.18,111.05,111.17,30547
01/17/2018,14:40,111.19,111.24,111.15,111.17,57980
01/17/2018,14:45,111.19,111.51,111.14,111.41,32614
01/17/2018,14:50,111.42,111.44,111.34,111.36,40028
01/17/2018,14:55,111.37,111.45,111.3,111.44,27290
01/17/2018,15:00,111.45,111.48,111.3,111.44,40363
01/17/2018,15:05,111.42,111.6,111.36,111.58,68131
01/17/2018,15:10,111.59,111.59,111.36,111.4,36304
01/17/2018,15:15,111.37,111.43,111.26,111.33,39193
01/17/2018,15:20,111.35,111.45,111.3,111.44,36599
01/17/2018,15:25,111.45,111.48,111.35,111.4,36933
01/17/2018,15:30,111.41,111.46,111.32,111.33,41113
01/17/2018,15:35,111.33,111.52,111.33,111.41,53227
01/17/2018,15:40,111.4,111.46,111.34,111.37,44937
01/17/2018,15:45,111.35,111.37,111.2,111.24,80806
01/17/2018,15:50,111.24,111.26,110.82,110.82,102661
01/17/2018,15:55,110.83,110.85,110.48,110.7,259084
01/17/2018,16:00,110.7,110.7,110.69,110.69,164789
01/17/2018,16:05,110.69,110.89,110.69,110.89,15078
01/17/2018,16:10,110.97,110.97,110.97,110.97,103
01/17/2018,16:15,112.76,112.76,112.76,112.76,154
01/17/2018,16:30,110.9,110.9,110.89,110.89,259
01/18/2018,07:25,111.23,111.23,111.13,111.13,517
01/18/2018,08:00,110.69,110.69,110.65,110.69,2129
01/18/2018,08:15,110.04,110.04,110.04,110.04,248
01/18/2018,08:20,109.73,109.73,109.34,109.34,413
01/18/2018,08:25,108.28,108.28,108.28,108.28,1447
01/18/2018,09:25,110.69,110.8,110.59,110.71,5844
01/18/2018,09:30,111.9,115.97,111.33,115.93,147047
01/18/2018,09:35,115.93,118.01,115.35,115.65,226944
01/18/2018,09:40,115.71,115.91,114.11,114.48,188277
01/18/2018,09:45,114.53,115.53,114.41,115.25,196254
01/18/2018,09:50,115.36,115.5,114.96,115.04,57622
01/18/2018,09:55,115,115.12,114.35,114.95,62544
01/18/2018,10:00,115.02,115.07,114.76,114.9,88383
01/18/2018,10:05,114.89,114.97,114.33,114.37,65944
01/18/2018,10:10,114.37,114.88,114.33,114.4,56273
01/18/2018,10:15,114.38,114.49,113.87,114.18,79386
01/18/2018,10:20,114.22,114.32,113.75,113.9,46814
01/18/2018,10:25,113.93,114.45,113.63,113.81,80615
01/18/2018,10:30,113.82,113.98,113.36,113.64,42677
01/18/2018,10:35,113.62,114.01,113.46,113.91,51381
01/18/2018,10:40,113.91,114.12,113.91,114.07,14341
01/18/2018,10:45,114.07,114.09,113.82,114,24148
01/18/2018,10:50,113.97,114.35,113.96,114.3,28159
01/18/2018,10:55,114.28,114.69,114.28,114.57,22487
01/18/2018,11:00,114.52,114.69,114.25,114.39,22753
01/18/2018,11:05,114.45,114.75,114.4,114.75,19311
01/18/2018,11:10,114.75,114.75,114.64,114.71,42119
01/18/2018,11:15,114.74,115.23,114.74,114.94,44233
01/18/2018,11:20,114.89,115.1,114.89,115.01,20755
01/18/2018,11:25,114.98,115.09,114.78,114.92,21109
01/18/2018,11:30,114.92,115.01,114.74,114.95,18686
01/18/2018,11:35,114.95,115.04,114.8,114.85,45786
01/18/2018,11:40,114.9,114.9,114.23,114.27,20933
01/18/2018,11:45,114.26,114.33,113.99,114.13,27454
01/18/2018,11:50,114.06,114.46,113.98,114.22,14157
01/18/2018,11:55,114.24,114.24,113.76,114.08,37324
01/18/2018,12:00,113.9,114.33,113.75,114.08,19354
01/18/2018,12:05,114.06,114.33,114.06,114.18,10840
01/18/2018,12:10,114.21,114.28,113.92,114.18,20890
01/18/2018,12:15,114.13,114.18,113.95,114.06,10123
01/18/2018,12:20,114.07,114.29,114.04,114.19,9837
01/18/2018,12:25,114.15,114.35,114.15,114.28,10322
01/18/2018,12:30,114.28,114.31,114.14,114.31,10732
01/18/2018,12:35,114.3,114.39,114.23,114.37,10596
01/18/2018,12:40,114.37,114.45,114.28,114.45,6366
01/18/2018,12:45,114.45,114.48,114.35,114.37,7599
01/18/2018,12:50,114.39,114.4,114.16,114.22,11620
01/18/2018,12:55,114.28,114.51,114.27,114.36,7622
01/18/2018,13:00,114.39,114.39,114.13,114.18,17177
01/18/2018,13:05,114.17,114.47,114.17,114.31,16981
01/18/2018,13:10,114.31,114.38,114.22,114.28,6816
01/18/2018,13:15,114.27,114.32,114.06,114.22,17939
01/18/2018,13:20,114.19,114.34,114.14,114.27,34972
01/18/2018,13:25,114.24,114.27,114.18,114.21,9669
01/18/2018,13:30,114.19,114.19,113.93,114.03,47575
01/18/2018,13:35,114.05,114.08,113.9,114.01,31290
01/18/2018,13:40,113.99,114.04,113.91,113.99,18293
01/18/2018,13:45,114.04,114.16,114.03,114.13,8803
01/18/2018,13:50,114.13,114.26,114.11,114.24,18706
01/18/2018,13:55,114.21,114.32,114.19,114.29,22424
01/18/2018,14:00,114.29,114.83,114.28,114.35,24579
01/18/2018,14:05,114.35,114.48,114.29,114.45,22415
01/18/2018,14:10,114.45,114.63,114.45,114.58,26989
01/18/2018,14:15,114.59,114.67,114.45,114.64,39414
01/18/2018,14:20,114.64,114.65,114.44,114.44,17003
01/18/2018,14:25,114.47,114.63,114.35,114.6,16549
01/18/2018,14:30,114.6,114.8,114.41,114.41,37954
01/18/2018,14:35,114.42,114.45,114.22,114.26,15844
01/18/2018,14:40,114.26,114.35,114.19,114.34,13947
01/18/2018,14:45,114.35,114.39,114.16,114.19,14749
01/18/2018,14:50,114.15,114.23,114.01,114.23,26373
01/18/2018,14:55,114.23,114.24,114,114.1,20639
01/18/2018,15:00,114.1,114.42,114.07,114.37,37312
01/18/2018,15:05,114.36,114.44,114.21,114.44,20992
01/18/2018,15:10,114.47,114.51,114.37,114.44,20046
01/18/2018,15:15,114.4,114.56,114.4,114.52,26337
01/18/2018,15:20,114.54,114.68,114.48,114.54,16908
01/18/2018,15:25,114.51,114.56,114.44,114.48,16372
01/18/2018,15:30,114.46,114.51,114.24,114.28,29740
01/18/2018,15:35,114.31,114.46,114.26,114.42,55374
01/18/2018,15:40,114.43,114.53,114.26,114.26,45439
01/18/2018,15:45,114.3,114.36,114.2,114.32,46610
01/18/2018,15:50,114.32,114.4,114.3,114.36,78519
01/18/2018,15:55,114.35,114.53,114.28,114.48,140850
01/18/2018,16:00,114.47,114.47,114.47,114.47,212311
01/18/2018,16:20,114.47,114.47,114.47,114.47,116
01/18/2018,18:40,114.83,114.83,114.83,114.83,103
01/18/2018,18:50,114.7,114.7,114.61,114.61,206
01/18/2018,19:45,114.68,114.68,114.68,114.68,672
01/18/2018,19:50,114.65,114.65,114.65,114.65,103
01/18/2018,19:55,114.7,114.7,114.7,114.7,414
01/19/2018,04:00,114.04,114.04,114.04,114.04,124
01/19/2018,08:00,113.88,113.88,113.88,113.88,103
01/19/2018,09:10,113.59,113.59,113.59,113.59,103
01/19/2018,09:20,113.67,113.67,113.67,113.67,335
01/19/2018,09:30,114.12,115.14,112.88,114.84,212882
01/19/2018,09:35,114.94,115.17,113.78,113.82,61424
01/19/2018,09:40,113.85,113.87,113.35,113.61,42009
01/19/2018,09:45,113.66,114.02,113.55,113.59,65480
01/19/2018,09:50,113.6,113.86,113.55,113.79,41798
01/19/2018,09:55,113.77,113.82,113.16,113.36,37318
01/19/2018,10:00,113.29,113.44,113.13,113.13,19643
01/19/2018,10:05,113.13,113.74,113.12,113.74,57728
01/19/2018,10:10,113.74,114.02,113.69,114.02,29245
01/19/2018,10:15,114.02,114.02,113.39,113.51,33754
01/19/2018,10:20,113.46,113.58,113.44,113.56,21315
01/19/2018,10:25,113.57,114.25,113.57,113.96,26325
01/19/2018,10:30,113.96,114.1,113.82,114.06,18791
01/19/2018,10:35,114.06,114.1,113.8,114.07,23909
01/19/2018,10:40,114.09,114.11,113.67,113.79,17683
01/19/2018,10:45,113.81,114.29,113.78,114.13,26193
01/19/2018,10:50,114.1,114.46,114.03,114.12,33899
01/19/2018,10:55,114.17,114.19,113.86,113.86,20770
01/19/2018,11:00,113.84,113.84,113.65,113.69,23978
01/19/2018,11:05,113.69,113.7,113.46,113.49,15231
01/19/2018,11:10,113.53,113.59,113.38,113.54,35543
01/19/2018,11:15,113.55,114.17,113.36,113.87,25354
01/19/2018,11:20,113.78,113.78,113.45,113.45,12836
01/19/2018,11:25,113.44,113.51,113.26,113.29,13894
01/19/2018,11:30,113.28,113.53,113.28,113.51,34021
01/19/2018,11:35,113.51,113.52,113.24,113.24,16209
01/19/2018,11:40,113.24,113.26,113.09,113.17,18462
01/19/2018,11:45,113.17,113.17,112.8,112.89,25854
01/19/2018,11:50,112.85,113.14,112.75,112.87,27741
01/19/2018,11:55,112.88,112.88,112.66,112.81,20247
01/19/2018,12:00,112.81,112.87,112.76,112.76,10594
01/19/2018,12:05,112.79,112.91,112.79,112.88,10664
01/19/2018,12:10,112.89,113.1,112.89,112.96,11673
01/19/2018,12:15,112.98,112.99,112.93,112.95,8350
01/19/2018,12:20,112.95,113.05,112.91,113.01,10950
01/19/2018,12:25,113,113.07,112.97,113.06,16012
01/19/2018,12:30,113.06,113.09,112.98,112.98,19960
01/19/2018,12:35,113.01,113.14,112.96,113.14,22879
01/19/2018,12:40,113.14,113.35,113.14,113.23,24544
01/19/2018,12:45,113.21,113.35,113.17,113.3,14533
01/19/2018,12:50,113.31,113.43,113.31,113.39,18580
01/19/2018,12:55,113.41,113.49,113.34,113.49,13624
01/19/2018,13:00,113.48,113.77,113.4,113.52,25623
01/19/2018,13:05,113.53,113.56,113.48,113.52,12811
01/19/2018,13:10,113.53,113.57,113.47,113.56,15676
01/19/2018,13:15,113.56,113.56,113.47,113.55,13583
01/19/2018,13:20,113.54,113.57,113.5,113.52,15545
01/19/2018,13:25,113.53,113.64,113.52,113.62,14442
01/19/2018,13:30,113.65,113.8,113.62,113.62,14362
01/19/2018,13:35,113.62,113.62,113.5,113.53,10920
01/19/2018,13:40,113.54,113.62,113.51,113.53,16164
01/19/2018,13:45,113.52,113.62,113.5,113.56,14341
01/19/2018,13:50,113.56,113.63,113.54,113.63,11080
01/19/2018,13:55,113.63,113.65,113.54,113.55,10354
01/19/2018,14:00,113.55,113.58,113.48,113.5,30522
01/19/2018,14:05,113.52,113.53,113.42,113.46,15897
01/19/2018,14:10,113.45,113.54,113.43,113.54,12585
01/19/2018,14:15,113.55,113.78,113.55,113.78,18246
01/19/2018,14:20,113.76,113.89,113.72,113.89,19740
01/19/2018,14:25,113.87,113.89,113.83,113.89,22835
01/19/2018,14:30,113.89,114.14,113.87,114.08,29432
01/19/2018,14:35,114.06,114.08,113.9,113.96,16115
01/19/2018,14:40,113.94,114.03,113.89,113.95,14736
01/19/2018,14:45,113.93,114.04,113.93,113.98,10819
01/19/2018,14:50,113.98,114.02,113.93,113.93,21251
01/19/2018,14:55,113.93,113.94,113.87,113.91,14839
01/19/2018,15:00,113.9,113.94,113.85,113.93,17230
01/19/2018,15:05,113.93,114.01,113.89,113.99,19784
01/19/2018,15:10,114.01,114.23,114.01,114.23,40175
01/19/2018,15:15,114.24,114.34,114.23,114.34,36771
01/19/2018,15:20,114.34,114.34,114.21,114.22,28779
01/19/2018,15:25,114.21,114.32,114.2,114.32,17784
01/19/2018,15:30,114.32,114.46,114.32,114.4,35377
01/19/2018,15:35,114.41,114.42,114.33,114.34,34532
01/19/2018,15:40,114.34,114.37,114.29,114.37,51805
01/19/2018,15:45,114.38,114.39,114.17,114.21,63625
01/19/2018,15:50,114.22,114.27,114.18,114.25,51089
01/19/2018,15:55,114.25,114.57,114.22,114.5,187923
01/19/2018,16:00,114.5,114.5,114.5,114.5,425758
01/22/2018,09:30,114.33,114.7,113.98,114.48,34413
01/22/2018,09:35,114.47,114.71,114.25,114.26,14793
01/22/2018,09:40,114.32,114.44,114.19,114.19,16295
01/22/2018,09:45,114.31,114.34,113.91,114.05,16568
01/22/2018,09:50,114.03,114.05,113.81,113.85,13489
01/22/2018,09:55,113.84,114.04,113.61,113.75,17847
01/22/2018,10:00,113.77,113.95,113.62,113.77,20599
01/22/2018,10:05,113.76,113.86,113.53,113.53,18511
01/22/2018,10:10,113.53,113.58,113.42,113.55,12135
01/22/2018,10:15,113.52,113.57,113.33,113.45,21595
01/22/2018,10:20,113.41,113.91,113.41,113.69,28961
01/22/2018,10:25,113.7,113.86,113.65,113.77,20692
01/22/2018,10:30,113.82,113.92,113.61,113.69,17424
01/22/2018,10:35,113.69,113.79,113.65,113.69,13668
01/22/2018,10:40,113.73,113.87,113.73,113.85,15831
01/22/2018,10:45,113.87,113.98,113.73,113.74,17889
01/22/2018,10:50,113.72,113.72,113.53,113.56,18257
01/22/2018,10:55,113.56,113.58,113.28,113.33,21796
01/22/2018,11:00,113.33,113.38,113.27,113.27,13516
01/22/2018,11:05,113.3,113.39,113.3,113.39,12960
01/22/2018,11:10,113.39,113.41,113.29,113.31,20778
01/22/2018,11:15,113.32,113.32,112.93,113.07,20608
01/22/2018,11:20,113.08,113.12,113.03,113.09,9760
01/22/2018,11:25,113.12,113.12,113.04,113.04,13539
01/22/2018,11:30,113.03,113.12,113,113.08,13537
01/22/2018,11:35,113.09,113.23,113.06,113.17,15192
01/22/2018,11:40,113.15,113.25,113.12,113.14,14552
01/22/2018,11:45,113.21,113.21,113.05,113.06,10475
01/22/2018,11:50,113.08,113.1,112.99,113.02,11374
01/22/2018,11:55,112.97,113.15,112.95,113.15,9166
01/22/2018,12:00,113.13,113.24,113.08,113.24,7455
01/22/2018,12:05,113.25,113.42,113.24,113.28,9653
01/22/2018,12:10,113.28,113.31,113.24,113.24,6580
01/22/2018,12:15,113.23,113.31,113.23,113.3,8363
01/22/2018,12:20,113.3,113.45,113.3,113.43,6075
01/22/2018,12:25,113.43,113.47,113.37,113.42,15798
01/22/2018,12:30,113.42,113.44,113.32,113.38,10418
01/22/2018,12:35,113.35,113.37,113.26,113.26,6182
01/22/2018,12:40,113.26,113.47,113.24,113.47,6990
01/22/2018,12:45,113.51,113.52,113.37,113.37,11488
01/22/2018,12:50,113.37,113.52,113.35,113.5,7362
01/22/2018,12:55,113.5,113.5,113.41,113.45,7328
01/22/2018,13:00,113.46,113.47,113.33,113.43,6445
01/22/2018,13:05,113.39,113.45,113.33,113.37,5958
01/22/2018,13:10,113.37,113.52,113.36,113.47,23960
01/22/2018,13:15,113.46,113.48,113.44,113.46,13386
01/22/2018,13:20,113.46,113.47,113.35,113.36,9035
01/22/2018,13:25,113.36,113.38,113.25,113.26,16460
01/22/2018,13:30,113.26,113.35,113.22,113.26,10856
01/22/2018,13:35,113.26,113.29,113.15,113.19,10217
01/22/2018,13:40,113.17,113.21,113.13,113.13,5645
01/22/2018,13:45,113.17,113.25,113.13,113.21,21843
01/22/2018,13:50,113.17,113.24,113.15,113.15,6931
01/22/2018,13:55,113.16,113.2,113.03,113.03,16705
01/22/2018,14:00,113.04,113.12,112.96,113.03,16473
01/22/2018,14:05,113.01,113.05,112.95,112.97,21543
01/22/2018,14:10,112.99,112.99,112.9,112.9,12699
01/22/2018,14:15,112.9,112.93,112.76,112.79,15025
01/22/2018,14:20,112.78,112.79,112.65,112.66,16133
01/22/2018,14:25,112.68,112.7,112.61,112.61,35076
01/22/2018,14:30,112.62,112.71,112.56,112.7,30281
01/22/2018,14:35,112.7,112.74,112.67,112.71,16889
01/22/2018,14:40,112.69,112.72,112.67,112.67,9900
01/22/2018,14:45,112.7,112.77,112.66,112.74,16788
01/22/2018,14:50,112.7,112.82,112.69,112.78,6192
01/22/2018,14:55,112.78,112.8,112.74,112.79,8478
01/22/2018,15:00,112.78,112.82,112.74,112.78,9714
01/22/2018,15:05,112.79,112.83,112.75,112.75,8962
01/22/2018,15:10,112.78,112.78,112.69,112.69,8498
01/22/2018,15:15,112.72,112.74,112.58,112.64,11380
01/22/2018,15:20,112.6,112.62,112.49,112.53,16238
01/22/2018,15:25,112.56,112.59,112.51,112.54,15052
01/22/2018,15:30,112.54,112.62,112.5,112.62,17955
01/22/2018,15:35,112.62,112.71,112.61,112.65,28903
01/22/2018,15:40,112.68,112.71,112.64,112.7,18857
01/22/2018,15:45,112.7,112.76,112.69,112.74,20230
01/22/2018,15:50,112.74,112.86,112.73,112.79,37515
01/22/2018,15:55,112.79,112.93,112.74,112.88,90550
01/22/2018,16:00,112.89,112.9,112.89,112.9,161211
01/22/2018,16:15,112.89,112.89,112.89,112.89,362
01/22/2018,16:55,112.9,112.9,112.9,112.9,1520
01/22/2018,19:10,113.11,113.11,113.11,113.11,621
01/22/2018,19:15,113.11,113.11,113.11,113.11,310
01/23/2018,07:00,113.11,113.11,113.11,113.11,103
01/23/2018,09:30,112.64,113.08,112.64,112.85,31250
01/23/2018,09:35,112.87,113.17,112.75,113.17,38535
01/23/2018,09:40,113.17,113.45,113.09,113.32,11129
01/23/2018,09:45,113.31,113.76,113.3,113.66,22571
01/23/2018,09:50,113.7,113.81,113.61,113.8,8572
01/23/2018,09:55,113.79,113.95,113.65,113.82,15447
01/23/2018,10:00,113.83,113.84,113.67,113.76,11880
01/23/2018,10:05,113.79,114.03,113.79,114.02,11119
01/23/2018,10:10,114.03,114.18,113.98,114.07,16684
01/23/2018,10:15,114.05,114.08,113.96,114,10292
01/23/2018,10:20,114.02,114.04,113.71,113.73,16313
01/23/2018,10:25,113.75,113.84,113.72,113.82,7914
01/23/2018,10:30,113.81,113.81,113.56,113.62,11720
01/23/2018,10:35,113.62,113.62,113.47,113.5,9012
01/23/2018,10:40,113.52,113.54,113.27,113.27,8231
01/23/2018,10:45,113.27,113.44,113.27,113.44,10143
01/23/2018,10:50,113.47,113.47,113.34,113.46,16627
01/23/2018,10:55,113.44,113.52,113.3,113.5,25076
01/23/2018,11:00,113.48,114.03,113.3,113.37,97523
01/23/2018,11:05,113.39,113.5,113.34,113.48,30461
01/23/2018,11:10,113.51,113.54,113.39,113.46,28849
01/23/2018,11:15,113.43,113.45,113.31,113.41,16616
01/23/2018,11:20,113.38,113.39,113.21,113.34,31939
01/23/2018,11:25,113.33,113.39,113.25,113.33,13100
01/23/2018,11:30,113.33,113.52,113.32,113.52,10504
01/23/2018,11:35,113.51,113.51,113.36,113.39,7670
01/23/2018,11:40,113.39,113.46,113.22,113.39,15257
01/23/2018,11:45,113.4,113.43,113.29,113.32,14050
01/23/2018,11:50,113.3,113.41,113.26,113.41,16289
01/23/2018,11:55,113.41,113.41,113.32,113.38,6685
01/23/2018,12:00,113.38,113.45,113.36,113.42,6338
01/23/2018,12:05,113.43,113.47,113.4,113.44,4034
01/23/2018,12:10,113.46,113.49,113.42,113.42,4469
01/23/2018,12:15,113.43,113.44,113.26,113.3,10879
01/23/2018,12:20,113.3,113.32,113.25,113.25,13036
01/23/2018,12:25,113.24,113.31,113.24,113.3,7738
01/23/2018,12:30,113.31,113.54,113.31,113.54,7925
01/23/2018,12:35,113.53,113.53,113.39,113.46,5867
01/23/2018,12:40,113.48,113.5,113.42,113.44,4491
01/23/2018,12:45,113.44,113.45,113.32,113.35,11356
01/23/2018,12:50,113.36,113.36,113.31,113.35,7550
01/23/2018,12:55,113.36,113.39,113.32,113.38,11875
01/23/2018,13:00,113.41,113.44,113.35,113.35,10723
01/23/2018,13:05,113.36,113.38,113.31,113.31,12041
01/23/2018,13:10,113.3,113.31,113.21,113.21,9180
01/23/2018,13:15,113.24,113.24,113.2,113.2,5955
01/23/2018,13:20,113.2,113.32,113.2,113.3,6564
01/23/2018,13:25,113.29,113.29,113.19,113.22,8848
01/23/2018,13:30,113.24,113.29,113.19,113.22,11809
01/23/2018,13:35,113.22,113.22,113.02,113.04,10322
01/23/2018,13:40,113.05,113.17,113.05,113.08,7882
01/23/2018,13:45,113.07,113.11,113.03,113.05,9859
01/23/2018,13:50,113.06,113.12,113.05,113.07,7029
01/23/2018,13:55,113.08,113.08,112.99,113.01,14510
01/23/2018,14:00,113.01,113.08,112.96,112.96,20180
01/23/2018,14:05,112.96,113,112.89,112.98,19254
01/23/2018,14:10,112.99,113.11,112.96,112.98,22086
01/23/2018,14:15,112.98,113.15,112.96,113.15,25171
01/23/2018,14:20,113.15,113.21,113.1,113.21,16629
01/23/2018,14:25,113.21,113.21,113.1,113.14,17570
01/23/2018,14:30,113.16,113.2,113.15,113.19,11796
01/23/2018,14:35,113.2,113.24,113.17,113.24,14382
01/23/2018,14:40,113.25,113.38,113.25,113.36,12432
01/23/2018,14:45,113.36,113.51,113.36,113.4,12760
01/23/2018,14:50,113.42,113.53,113.42,113.48,14702
01/23/2018,14:55,113.47,113.56,113.45,113.55,10596
01/23/2018,15:00,113.57,113.57,113.51,113.55,12846
01/23/2018,15:05,113.55,113.55,113.47,113.48,17528
01/23/2018,15:10,113.49,113.53,113.4,113.4,10031
01/23/2018,15:15,113.4,113.41,113.36,113.4,17478
01/23/2018,15:20,113.39,113.39,113.34,113.35,10997
01/23/2018,15:25,113.34,113.38,113.29,113.34,19749
01/23/2018,15:30,113.34,113.35,113.27,113.32,19407
01/23/2018,15:35,113.36,113.47,113.31,113.47,17817
01/23/2018,15:40,113.47,113.47,113.39,113.44,28389
01/23/2018,15:45,113.43,113.54,113.42,113.52,33119
01/23/2018,15:50,113.52,113.53,113.35,113.39,38116
01/23/2018,15:55,113.4,113.45,113.34,113.37,118779
01/23/2018,16:00,113.35,113.35,113.35,113.35,200545
01/23/2018,16:15,113.35,113.35,113.35,113.35,150
01/23/2018,16:35,113.35,113.35,113.35,113.35,147
01/24/2018,09:30,113.63,113.96,113.6,113.9,19285
01/24/2018,09:35,113.9,113.91,113.51,113.58,6559
01/24/2018,09:40,113.58,113.63,113.48,113.58,5086
01/24/2018,09:45,113.62,113.67,113.5,113.61,7741
01/24/2018,09:50,113.59,113.64,113.45,113.56,7928
01/24/2018,09:55,113.51,113.69,113.5,113.65,10928
01/24/2018,10:00,113.65,113.9,113.61,113.83,27077
01/24/2018,10:05,113.87,113.91,113.82,113.87,43919
01/24/2018,10:10,113.83,114.01,113.83,114,23853
01/24/2018,10:15,114.03,114.32,114.02,114.28,22889
01/24/2018,10:20,114.28,114.49,114.28,114.47,17886
01/24/2018,10:25,114.44,114.72,114.43,114.65,20334
01/24/2018,10:30,114.64,114.77,114.59,114.72,25535
01/24/2018,10:35,114.71,114.77,114.58,114.76,26228
01/24/2018,10:40,114.77,114.92,114.77,114.89,32750
01/24/2018,10:45,114.9,114.9,114.79,114.81,15544
01/24/2018,10:50,114.79,114.98,114.78,114.86,25858
01/24/2018,10:55,114.86,114.86,114.56,114.68,27531
01/24/2018,11:00,114.68,114.92,114.61,114.92,30929
01/24/2018,11:05,114.94,114.96,114.89,114.94,25194
01/24/2018,11:10,114.92,114.93,114.54,114.55,12310
01/24/2018,11:15,114.49,114.61,114.39,114.54,6736
01/24/2018,11:20,114.54,114.61,114.38,114.44,6850
01/24/2018,11:25,114.42,114.49,114.35,114.46,10490
01/24/2018,11:30,114.42,114.42,114.22,114.37,8366
01/24/2018,11:35,114.38,114.6,114.38,114.45,27762
01/24/2018,11:40,114.47,114.57,114.32,114.48,12294
01/24/2018,11:45,114.48,114.55,114.43,114.54,10348
01/24/2018,11:50,114.56,114.64,114.5,114.5,38856
01/24/2018,11:55,114.52,114.52,114.33,114.39,11008
01/24/2018,12:00,114.39,114.39,114.1,114.17,23200
01/24/2018,12:05,114.25,114.3,114.04,114.3,12240
01/24/2018,12:10,114.3,114.32,114.23,114.31,8276
01/24/2018,12:15,114.38,114.38,114.1,114.13,9519
01/24/2018,12:20,114.22,114.29,114.14,114.14,19520
01/24/2018,12:25,114.11,114.12,114.05,114.11,21318
01/24/2018,12:30,114.11,114.12,114.02,114.09,17016
01/24/2018,12:35,114.08,114.15,113.86,113.86,21240
01/24/2018,12:40,113.84,113.98,113.8,113.92,8327
01/24/2018,12:45,113.95,114.01,113.89,114.01,8280
01/24/2018,12:50,113.98,114.09,113.97,114.02,9975
01/24/2018,12:55,114.04,114.11,114.02,114.11,7242
01/24/2018,13:00,114.11,114.2,114.03,114.05,8045
01/24/2018,13:05,114.04,114.17,113.99,114.06,14972
01/24/2018,13:10,114.03,114.15,114.03,114.08,12137
01/24/2018,13:15,114.08,114.17,113.97,114.15,10003
01/24/2018,13:20,114.16,114.43,114.15,114.43,9713
01/24/2018,13:25,114.43,114.54,114.41,114.49,13171
01/24/2018,13:30,114.51,114.78,114.48,114.78,14464
01/24/2018,13:35,114.77,114.81,114.53,114.62,17457
01/24/2018,13:40,114.63,114.78,114.6,114.78,7088
01/24/2018,13:45,114.77,114.85,114.64,114.68,14226
01/24/2018,13:50,114.68,114.83,114.64,114.82,14128
01/24/2018,13:55,114.77,114.9,114.75,114.84,10497
01/24/2018,14:00,114.82,114.95,114.81,114.85,12466
01/24/2018,14:05,114.84,114.91,114.73,114.75,13174
01/24/2018,14:10,114.76,114.8,114.68,114.73,8441
01/24/2018,14:15,114.75,114.92,114.72,114.92,11143
01/24/2018,14:20,114.91,114.95,114.72,114.72,10046
01/24/2018,14:25,114.76,114.93,114.76,114.86,16479
01/24/2018,14:30,114.85,114.97,114.83,114.9,16350
01/24/2018,14:35,114.9,114.96,114.9,114.94,14193
01/24/2018,14:40,114.95,114.96,114.87,114.91,12161
01/24/2018,14:45,114.94,115.15,114.94,115.09,34620
01/24/2018,14:50,115.1,115.16,115.08,115.1,10912
01/24/2018,14:55,115.11,115.14,114.95,115.01,9897
01/24/2018,15:00,114.99,115,114.88,114.92,16432
01/24/2018,15:05,114.92,114.99,114.87,114.93,17893
01/24/2018,15:10,114.93,115.03,114.93,114.98,18198
01/24/2018,15:15,114.97,115.06,114.97,115,23955
01/24/2018,15:20,114.99,115.09,114.98,115.08,27391
01/24/2018,15:25,115.08,115.08,114.84,114.84,28658
01/24/2018,15:30,114.86,114.93,114.77,114.88,22114
01/24/2018,15:35,114.9,115.09,114.9,115.03,31079
01/24/2018,15:40,115.02,115.02,114.91,115.01,47547
01/24/2018,15:45,115.01,115.15,114.97,115.04,58416
01/24/2018,15:50,115.04,115.11,114.97,114.99,73486
01/24/2018,15:55,115.01,115.08,114.98,115.04,97045
01/24/2018,16:00,114.89,114.98,114.89,114.98,189797
01/24/2018,16:45,114.98,114.98,114.98,114.98,230
01/25/2018,09:30,115.78,116.73,115.68,116.63,51738
01/25/2018,09:35,116.57,116.71,116.14,116.37,23920
01/25/2018,09:40,116.3,116.76,116.21,116.57,15670
01/25/2018,09:45,116.44,116.52,116.2,116.39,14275
01/25/2018,09:50,116.36,116.42,116.3,116.33,22279
